sample,t_seconds,ppg_raw
0,-0.0720,3511
1,-0.0640,3599
2,-0.0560,3577
3,-0.0480,3607
4,-0.0400,3727
5,-0.0320,3687
6,-0.0240,3669
7,-0.0160,3671
8,-0.0080,3547
9,0.0000,3664
10,0.0026,3497
11,0.0106,3446
12,0.0186,3592
13,0.0266,3494
14,0.0346,3469
15,0.0426,3552
16,0.0506,3454
17,0.0586,3391
18,0.0666,3466
19,0.0746,3379
20,0.1040,3343
21,0.1120,3436
22,0.1200,3368
23,0.1280,3369
24,0.1360,3435
25,0.1440,3407
26,0.1520,3561
27,0.1600,3469
28,0.1680,3464
29,0.1760,3629
30,0.1763,3606
31,0.1843,3660
32,0.1923,3863
33,0.2003,3872
34,0.2083,3906
35,0.2163,4032
36,0.2243,3988
37,0.2323,3984
38,0.2403,4061
39,0.2483,4012
40,0.2771,3951
41,0.2851,3991
42,0.2931,3905
43,0.3011,4012
44,0.3091,3840
45,0.3171,3712
46,0.3251,3755
47,0.3331,3569
48,0.3411,3454
49,0.3491,3458
50,0.3517,3305
51,0.3597,3190
52,0.3677,3175
53,0.3757,3024
54,0.3837,2885
55,0.3917,2890
56,0.3997,2724
57,0.4077,2616
58,0.4157,2580
59,0.4237,2467
60,0.4514,2379
61,0.4594,2424
62,0.4674,2294
63,0.4754,2239
64,0.4834,2164
65,0.4914,2088
66,0.4994,2152
67,0.5074,1995
68,0.5154,1887
69,0.5234,1879
70,0.5280,1713
71,0.5360,1608
72,0.5440,1588
73,0.5520,1466
74,0.5600,1380
75,0.5680,1407
76,0.5760,1326
77,0.5840,1285
78,0.5920,1324
79,0.6000,1251
80,0.6260,1374
81,0.6340,1235
82,0.6420,1189
83,0.6500,1313
84,0.6580,1226
85,0.6660,1220
86,0.6740,1360
87,0.6820,1336
88,0.6900,1367
89,0.6980,1557
90,0.7021,1565
91,0.7101,1639
92,0.7181,1804
93,0.7261,1832
94,0.7341,1896
95,0.7421,2034
96,0.7501,2028
97,0.7581,2029
98,0.7661,2117
99,0.7741,2092
100,0.8022,2302
101,0.8102,2260
102,0.8182,2304
103,0.8262,2551
104,0.8342,2582
105,0.8422,2699
106,0.8502,2928
107,0.8582,2975
108,0.8662,3047
109,0.8742,3272
110,0.8761,3332
111,0.8841,3410
112,0.8921,3610
113,0.9001,3619
114,0.9081,3660
115,0.9161,3715
116,0.9241,3639
117,0.9321,3611
118,0.9401,3514
119,0.9481,3419
120,0.9761,3427
121,0.9841,3187
122,0.9921,2967
123,1.0001,2963
124,1.0081,2720
125,1.0161,2580
126,1.0241,2509
127,1.0321,2395
128,1.0401,2313
129,1.0481,2333
130,1.0527,2294
131,1.0607,2431
132,1.0687,2816
133,1.0767,3047
134,1.0847,3504
135,1.0927,3602
136,1.1007,3713
137,1.1087,3992
138,1.1167,3977
139,1.1247,4055
140,1.1519,4095
141,1.1599,4095
142,1.1679,4095
143,1.1759,4095
144,1.1839,4095
145,1.1919,4095
146,1.1999,4095
147,1.2079,4095
148,1.2159,4095
149,1.2239,4095
150,1.2282,4095
151,1.2362,4095
152,1.2442,4095
153,1.2522,4095
154,1.2602,4095
155,1.2682,4095
156,1.2762,4023
157,1.2842,3999
158,1.2922,3663
159,1.3002,3364
160,1.3267,3209
161,1.3347,2861
162,1.3427,2606
163,1.3507,2511
164,1.3587,2287
165,1.3667,2151
166,1.3747,2175
167,1.3827,2098
168,1.3907,2087
169,1.3987,2166
170,1.4025,2086
171,1.4105,2215
172,1.4185,2074
173,1.4265,2029
174,1.4345,2217
175,1.4425,2139
176,1.4505,2184
177,1.4585,2410
178,1.4665,2407
179,1.4745,2466
180,1.5036,2715
181,1.5116,2730
182,1.5196,2822
183,1.5276,3042
184,1.5356,3071
185,1.5436,3174
186,1.5516,3380
187,1.5596,3403
188,1.5676,3464
189,1.5756,3604
190,1.5774,3607
191,1.5854,3838
192,1.5934,3711
193,1.6014,3653
194,1.6094,3777
195,1.6174,3600
196,1.6254,3502
197,1.6334,3567
198,1.6414,3416
199,1.6494,3307
200,1.6788,3372
201,1.6868,3199
202,1.6948,3088
203,1.7028,3104
204,1.7108,2951
205,1.7188,2888
206,1.7268,2936
207,1.7348,2876
208,1.7428,3077
209,1.7508,2935
210,1.7538,2888
211,1.7618,3082
212,1.7698,2966
213,1.7778,2927
214,1.7858,3084
215,1.7938,2937
216,1.8018,2869
217,1.8098,2970
218,1.8178,2847
219,1.8258,2815
220,1.8529,2941
221,1.8609,2875
222,1.8689,2871
223,1.8769,2993
224,1.8849,2940
225,1.8929,2904
226,1.9009,2983
227,1.9089,2931
228,1.9169,3119
229,1.9249,2986
230,1.9257,2967
231,1.9337,3163
232,1.9417,3074
233,1.9497,3048
234,1.9577,3173
235,1.9657,3052
236,1.9737,2976
237,1.9817,3054
238,1.9897,2946
239,1.9977,2895
240,2.0523,2990
241,2.0603,2911
242,2.0683,2890
243,2.0763,2957
244,2.0843,2914
245,2.0923,3107
246,2.1003,3019
247,2.1083,3040
248,2.1163,3274
249,2.1243,3247
250,2.1269,3301
251,2.1349,3403
252,2.1429,3449
253,2.1509,3503
254,2.1589,3691
255,2.1669,3659
256,2.1749,3663
257,2.1829,3786
258,2.1909,3750
259,2.1989,3743
260,2.2039,3770
261,2.2119,3760
262,2.2199,3819
263,2.2279,3824
264,2.2359,3746
265,2.2439,3903
266,2.2519,3797
267,2.2599,3751
268,2.2679,3767
269,2.2759,3752
270,2.2779,3740
271,2.2859,3873
272,2.2939,3805
273,2.3019,3787
274,2.3099,3891
275,2.3179,3851
276,2.3259,3843
277,2.3339,3878
278,2.3419,3896
279,2.3499,3919
280,2.3778,4095
281,2.3858,4015
282,2.3938,4095
283,2.4018,4047
284,2.4098,4007
285,2.4178,4095
286,2.4258,4049
287,2.4338,4017
288,2.4418,4095
289,2.4498,4053
290,2.4763,4009
291,2.4843,4095
292,2.4923,4013
293,2.5003,3960
294,2.5083,4024
295,2.5163,3930
296,2.5243,3874
297,2.5323,3910
298,2.5403,3815
299,2.5483,3812
300,2.5777,3747
301,2.5857,3695
302,2.5937,3848
303,2.6017,3680
304,2.6097,3578
305,2.6177,3649
306,2.6257,3492
307,2.6337,3383
308,2.6417,3435
309,2.6497,3301
310,2.6766,3235
311,2.6846,3194
312,2.6926,3151
313,2.7006,3111
314,2.7086,3163
315,2.7166,3075
316,2.7246,3034
317,2.7326,3057
318,2.7406,2992
319,2.7486,3104
320,2.7264,2986
321,2.7344,2928
322,2.7424,2996
323,2.7504,2896
324,2.7584,2873
325,2.7664,2979
326,2.7744,2976
327,2.7824,3025
328,2.7904,3163
329,2.7984,3186
330,2.8267,3248
331,2.8347,3372
332,2.8427,3383
333,2.8507,3436
334,2.8587,3549
335,2.8667,3575
336,2.8747,3752
337,2.8827,3707
338,2.8907,3718
339,2.8987,3872
340,2.9043,3820
341,2.9123,3834
342,2.9203,4095
343,2.9283,3994
344,2.9363,3985
345,2.9443,4095
346,2.9523,4082
347,2.9603,4095
348,2.9683,4095
349,2.9763,4095
350,3.0021,4095
351,3.0101,4095
352,3.0181,4095
353,3.0261,4095
354,3.0341,4095
355,3.0421,4095
356,3.0501,4095
357,3.0581,4095
358,3.0661,4095
359,3.0741,4095
360,3.0778,4095
361,3.0858,4095
362,3.0938,4095
363,3.1018,4095
364,3.1098,4095
365,3.1178,4095
366,3.1258,4095
367,3.1338,4095
368,3.1418,4095
369,3.1498,4095
370,3.2015,4095
371,3.2095,4095
372,3.2175,4095
373,3.2255,4095
374,3.2335,4095
375,3.2415,4095
376,3.2495,4095
377,3.2575,4095
378,3.2655,4095
379,3.2735,4095
380,3.2515,4095
381,3.2595,4095
382,3.2675,4095
383,3.2755,3967
384,3.2835,3865
385,3.2915,3942
386,3.2995,3807
387,3.3075,3749
388,3.3155,3791
389,3.3235,3681
390,3.3511,3695
391,3.3591,3664
392,3.3671,3607
393,3.3751,3749
394,3.3831,3600
395,3.3911,3480
396,3.3991,3527
397,3.4071,3300
398,3.4151,3122
399,3.4231,3107
400,3.4275,2896
401,3.4355,2752
402,3.4435,2727
403,3.4515,2544
404,3.4595,2393
405,3.4675,2390
406,3.4755,2254
407,3.4835,2204
408,3.4915,2275
409,3.4995,2231
410,3.5270,2480
411,3.5350,2368
412,3.5430,2366
413,3.5510,2558
414,3.5590,2488
415,3.5670,2488
416,3.5750,2643
417,3.5830,2583
418,3.5910,2604
419,3.5990,2793
420,3.6028,2816
421,3.6108,2909
422,3.6188,3138
423,3.6268,3219
424,3.6348,3353
425,3.6428,3511
426,3.6508,3527
427,3.6588,3744
428,3.6668,3670
429,3.6748,3666
430,3.7025,3851
431,3.7105,3782
432,3.7185,3764
433,3.7265,3929
434,3.7345,3849
435,3.7425,3844
436,3.7505,3946
437,3.7585,3860
438,3.7665,3832
439,3.7745,3916
440,3.7767,3851
441,3.7847,3792
442,3.7927,3838
443,3.8007,3750
444,3.8087,3731
445,3.8167,3779
446,3.8247,3733
447,3.8327,3891
448,3.8407,3783
449,3.8487,3772
450,3.8777,3907
451,3.8857,3856
452,3.8937,3858
453,3.9017,3996
454,3.9097,3924
455,3.9177,3881
456,3.9257,3958
457,3.9337,3851
458,3.9417,3811
459,3.9497,3838
460,3.9521,3741
461,3.9601,3681
462,3.9681,3699
463,3.9761,3599
464,3.9841,3673
465,3.9921,3491
466,4.0001,3363
467,4.0081,3407
468,4.0161,3248
469,4.0241,3167
470,4.0545,3200
471,4.0625,3063
472,4.0705,2899
473,4.0785,2841
474,4.0865,2667
475,4.0945,2552
476,4.1025,2572
477,4.1105,2459
478,4.1185,2363
479,4.1265,2327
480,4.1269,2161
481,4.1349,2032
482,4.1429,1972
483,4.1509,1847
484,4.1589,1909
485,4.1669,1805
486,4.1749,1790
487,4.1829,1913
488,4.1909,1801
489,4.1989,1729
490,4.2295,1756
491,4.2375,1606
492,4.2455,1533
493,4.2535,1535
494,4.2615,1411
495,4.2695,1318
496,4.2775,1336
497,4.2855,1255
498,4.2935,1228
499,4.3015,1300
500,4.3026,1259
501,4.3106,1422
502,4.3186,921
503,4.3266,561
504,4.3346,569
505,4.3426,425
506,4.3506,368
507,4.3586,465
508,4.3666,334
509,4.3746,279
510,4.4034,427
511,4.4114,383
512,4.4194,443
513,4.4274,679
514,4.4354,775
515,4.4434,952
516,4.4514,1243
517,4.4594,1395
518,4.4674,1635
519,4.4754,1787
520,4.4791,1849
521,4.4871,2139
522,4.4951,2100
523,4.5031,2140
524,4.5111,2383
525,4.5191,2335
526,4.5271,2372
527,4.5351,2573
528,4.5431,2552
529,4.5511,2612
530,4.5771,2819
531,4.5851,2835
532,4.5931,2929
533,4.6011,3175
534,4.6091,3286
535,4.6171,3514
536,4.6251,3836
537,4.6331,3976
538,4.6411,4095
539,4.6491,4095
540,4.6507,4095
541,4.6587,4095
542,4.6667,4095
543,4.6747,4095
544,4.6827,4095
545,4.6907,4095
546,4.6987,4095
547,4.7067,4095
548,4.7147,4095
549,4.7227,4095
550,4.7517,4095
551,4.7597,4095
552,4.7677,4095
553,4.7757,4095
554,4.7837,4095
555,4.7917,4095
556,4.7997,4095
557,4.8077,4095
558,4.8157,4095
559,4.8237,4095
560,4.8272,4095
561,4.8352,4095
562,4.8432,4095
563,4.8512,4095
564,4.8592,4095
565,4.8672,4095
566,4.8752,4095
567,4.8832,4095
568,4.8912,4095
569,4.8992,4047
570,4.9274,3995
571,4.9354,3758
572,4.9434,3578
573,4.9514,3475
574,4.9594,3255
575,4.9674,3259
576,4.9754,2952
577,4.9834,2733
578,4.9914,2727
579,4.9994,2439
580,5.0013,2242
581,5.0093,2253
582,5.0173,1993
583,5.0253,1838
584,5.0333,1852
585,5.0413,1710
586,5.0493,1657
587,5.0573,1760
588,5.0653,1732
589,5.0733,1761
590,5.1010,1929
591,5.1090,1944
592,5.1170,2188
593,5.1250,2151
594,5.1330,2204
595,5.1410,2442
596,5.1490,2443
597,5.1570,2512
598,5.1650,2731
599,5.1730,2745
600,5.2016,2807
601,5.2096,3010
602,5.2176,3014
603,5.2256,3072
604,5.2336,3229
605,5.2416,3247
606,5.2496,3315
607,5.2576,3451
608,5.2656,3480
609,5.2736,3519
610,5.2768,3616
611,5.2848,3670
612,5.2928,4049
613,5.3008,3894
614,5.3088,3862
615,5.3168,4002
616,5.3248,3948
617,5.3328,3938
618,5.3408,4076
619,5.3488,4030
620,5.3781,4015
621,5.3861,4095
622,5.3941,4095
623,5.4021,4093
624,5.4101,4095
625,5.4181,4095
626,5.4261,4095
627,5.4341,4095
628,5.4421,4095
629,5.4501,4095
630,5.4518,4095
631,5.4598,4095
632,5.4678,4095
633,5.4758,4095
634,5.4838,4095
635,5.4918,4095
636,5.4998,4095
637,5.5078,4095
638,5.5158,4095
639,5.5238,4095
640,5.5525,4095
641,5.5605,4095
642,5.5685,4091
643,5.5765,4035
644,5.5845,4063
645,5.5925,3964
646,5.6005,3975
647,5.6085,3893
648,5.6165,3783
649,5.6245,3863
650,5.6263,3696
651,5.6343,3606
652,5.6423,3688
653,5.6503,3565
654,5.6583,3504
655,5.6663,3564
656,5.6743,3468
657,5.6823,3419
658,5.6903,3498
659,5.6983,3444
660,5.7263,3436
661,5.7343,3522
662,5.7423,3479
663,5.7503,3471
664,5.7583,3553
665,5.7663,3540
666,5.7743,3723
667,5.7823,3659
668,5.7903,3641
669,5.7983,3790
670,5.8010,3711
671,5.8090,3671
672,5.8170,3779
673,5.8250,3700
674,5.8330,3678
675,5.8410,3789
676,5.8490,3710
677,5.8570,3669
678,5.8650,3725
679,5.8730,3633
680,5.9013,3566
681,5.9093,3583
682,5.9173,3488
683,5.9253,3571
684,5.9333,3410
685,5.9413,3323
686,5.9493,3397
687,5.9573,3267
688,5.9653,3198
689,5.9733,3281
690,5.9761,3187
691,5.9841,3150
692,5.9921,3233
693,6.0001,3174
694,6.0081,3165
695,6.0161,3253
696,6.0241,3220
697,6.0321,3229
698,6.0401,3324
699,6.0481,3301
700,6.0769,3321
701,6.0849,3396
702,6.0929,3387
703,6.1009,3535
704,6.1089,3479
705,6.1169,3476
706,6.1249,3608
707,6.1329,3528
708,6.1409,3502
709,6.1489,3581
710,6.1768,3503
711,6.1848,3442
712,6.1928,3483
713,6.2008,3375
714,6.2088,3307
715,6.2168,3317
716,6.2248,3227
717,6.2328,3158
718,6.2408,3159
719,6.2488,3087
720,6.2516,3062
721,6.2596,3024
722,6.2676,2999
723,6.2756,3078
724,6.2836,3030
725,6.2916,3011
726,6.2996,3080
727,6.3076,3069
728,6.3156,3081
729,6.3236,3168
730,6.3261,3165
731,6.3341,3196
732,6.3421,3275
733,6.3501,3280
734,6.3581,3315
735,6.3661,3379
736,6.3741,3396
737,6.3821,3419
738,6.3901,3483
739,6.3981,3493
740,6.4285,3588
741,6.4365,3560
742,6.4445,3561
743,6.4525,3626
744,6.4605,3594
745,6.4685,3587
746,6.4765,3637
747,6.4845,3611
748,6.4925,3592
749,6.5005,3632
750,6.5297,3590
751,6.5377,3571
752,6.5457,3599
753,6.5537,3568
754,6.5617,3556
755,6.5697,3571
756,6.5777,3547
757,6.5857,3539
758,6.5937,3526
759,6.6017,3523
760,6.6013,3588
761,6.6093,3542
762,6.6173,3525
763,6.6253,3617
764,6.6333,3536
765,6.6413,3507
766,6.6493,3526
767,6.6573,3499
768,6.6653,3478
769,6.6733,3510
770,6.7010,3487
771,6.7090,3478
772,6.7170,3501
773,6.7250,3488
774,6.7330,3504
775,6.7410,3507
776,6.7490,3505
777,6.7570,3553
778,6.7650,3523
779,6.7730,3519
780,6.7773,3563
781,6.7853,3536
782,6.7933,3540
783,6.8013,3573
784,6.8093,3570
785,6.8173,3550
786,6.8253,3581
787,6.8333,3563
788,6.8413,3557
789,6.8493,3582
790,6.8788,3567
791,6.8868,3559
792,6.8948,3583
793,6.9028,3568
794,6.9108,3603
795,6.9188,3579
796,6.9268,3564
797,6.9348,3606
798,6.9428,3583
799,6.9508,3562
800,6.9541,3564
801,6.9621,3556
802,6.9701,3548
803,6.9781,3580
804,6.9861,3561
805,6.9941,3555
806,7.0021,3571
807,7.0101,3552
808,7.0181,3553
809,7.0261,3575
810,7.0262,3561
811,7.0342,3517
812,7.0422,3576
813,7.0502,3557
814,7.0582,3591
815,7.0662,3552
816,7.0742,3537
817,7.0822,3570
818,7.0902,3529
819,7.0982,3517
820,7.1267,3533
821,7.1347,3507
822,7.1427,3487
823,7.1507,3501
824,7.1587,3471
825,7.1667,3461
826,7.1747,3477
827,7.1827,3464
828,7.1907,3440
829,7.1987,3455
830,7.2269,3431
831,7.2349,3466
832,7.2429,3456
833,7.2509,3430
834,7.2589,3459
835,7.2669,3443
836,7.2749,3431
837,7.2829,3468
838,7.2909,3444
839,7.2989,3448
840,7.3021,3470
841,7.3101,3455
842,7.3181,3456
843,7.3261,3474
844,7.3341,3476
845,7.3421,3468
846,7.3501,3487
847,7.3581,3471
848,7.3661,3518
849,7.3741,3496
850,7.3775,3488
851,7.3855,3522
852,7.3935,3504
853,7.4015,3498
854,7.4095,3521
855,7.4175,3515
856,7.4255,3503
857,7.4335,3518
858,7.4415,3508
859,7.4495,3507
860,7.4771,3520
861,7.4851,3504
862,7.4931,3496
863,7.5011,3512
864,7.5091,3496
865,7.5171,3488
866,7.5251,3505
867,7.5331,3490
868,7.5411,3528
869,7.5491,3501
870,7.5516,3494
871,7.5596,3528
872,7.5676,3495
873,7.5756,3486
874,7.5836,3504
875,7.5916,3489
876,7.5996,3485
877,7.6076,3506
878,7.6156,3495
879,7.6236,3491
880,7.6758,3504
881,7.6838,3494
882,7.6918,3474
883,7.6998,3489
884,7.7078,3483
885,7.7158,3507
886,7.7238,3484
887,7.7318,3482
888,7.7398,3516
889,7.7478,3496
890,7.7258,3492
891,7.7338,3526
892,7.7418,3513
893,7.7498,3511
894,7.7578,3541
895,7.7658,3529
896,7.7738,3524
897,7.7818,3544
898,7.7898,3528
899,7.7978,3527
900,7.8261,3539
901,7.8341,3519
902,7.8421,3480
903,7.8501,3510
904,7.8581,3491
905,7.8661,3511
906,7.8741,3494
907,7.8821,3484
908,7.8901,3508
909,7.8981,3489
910,7.9017,3471
911,7.9097,3503
912,7.9177,3482
913,7.9257,3479
914,7.9337,3494
915,7.9417,3488
916,7.9497,3472
917,7.9577,3490
918,7.9657,3471
919,7.9737,3463
920,8.0023,3491
921,8.0103,3478
922,8.0183,3495
923,8.0263,3478
924,8.0343,3470
925,8.0423,3499
926,8.0503,3479
927,8.0583,3471
928,8.0663,3496
929,8.0743,3474
930,8.1008,3468
931,8.1088,3484
932,8.1168,3467
933,8.1248,3468
934,8.1328,3476
935,8.1408,3463
936,8.1488,3464
937,8.1568,3466
938,8.1648,3458
939,8.1728,3389
940,8.1755,3462
941,8.1835,3458
942,8.1915,3484
943,8.1995,3462
944,8.2075,3455
945,8.2155,3474
946,8.2235,3459
947,8.2315,3456
948,8.2395,3471
949,8.2475,3452
950,8.2760,3452
951,8.2840,3455
952,8.2920,3449
953,8.3000,3446
954,8.3080,3462
955,8.3160,3450
956,8.3240,3451
957,8.3320,3462
958,8.3400,3450
959,8.3480,3488
960,8.3519,3466
961,8.3599,3464
962,8.3679,3483
963,8.3759,3463
964,8.3839,3459
965,8.3919,3479
966,8.3999,3463
967,8.4079,3455
968,8.4159,3477
969,8.4239,3466
970,8.4539,3458
971,8.4619,3480
972,8.4699,3463
973,8.4779,3458
974,8.4859,3473
975,8.4939,3460
976,8.5019,3504
977,8.5099,3465
978,8.5179,3449
979,8.5259,3473
980,8.5289,3452
981,8.5369,3449
982,8.5449,3462
983,8.5529,3448
984,8.5609,3444
985,8.5689,3456
986,8.5769,3453
987,8.5849,3449
988,8.5929,3465
989,8.6009,3451
990,8.6265,3453
991,8.6345,3477
992,8.6425,3473
993,8.6505,3476
994,8.6585,3491
995,8.6665,3485
996,8.6745,3526
997,8.6825,3500
998,8.6905,3494
999,8.6985,3524
1000,8.7012,3501
1001,8.7092,3486
1002,8.7172,3504
1003,8.7252,3480
1004,8.7332,3471
1005,8.7412,3473
1006,8.7492,3463
1007,8.7572,3453
1008,8.7652,3463
1009,8.7732,3455
1010,8.8007,3452
1011,8.8087,3455
1012,8.8167,3450
1013,8.8247,3471
1014,8.8327,3468
1015,8.8407,3465
1016,8.8487,3463
1017,8.8567,3469
1018,8.8647,3471
1019,8.8727,3500
1020,8.8769,3483
1021,8.8849,3488
1022,8.8929,3503
1023,8.9009,3494
1024,8.9089,3492
1025,8.9169,3507
1026,8.9249,3501
1027,8.9329,3499
1028,8.9409,3518
1029,8.9489,3513
1030,8.9761,3472
1031,8.9841,3519
1032,8.9921,3514
1033,9.0001,3536
1034,9.0081,3517
1035,9.0161,3511
1036,9.0241,3537
1037,9.0321,3513
1038,9.0401,3504
1039,9.0481,3523
1040,9.0509,3499
1041,9.0589,3496
1042,9.0669,3503
1043,9.0749,3491
1044,9.0829,3492
1045,9.0909,3506
1046,9.0989,3485
1047,9.1069,3485
1048,9.1149,3497
1049,9.1229,3482
1050,9.1547,3507
1051,9.1627,3494
1052,9.1707,3475
1053,9.1787,3498
1054,9.1867,3484
1055,9.1947,3471
1056,9.2027,3495
1057,9.2107,3481
1058,9.2187,3475
1059,9.2267,3494
1060,9.2261,3480
1061,9.2341,3483
1062,9.2421,3508
1063,9.2501,3487
1064,9.2581,3481
1065,9.2661,3490
1066,9.2741,3483
1067,9.2821,3417
1068,9.2901,3497
1069,9.2981,3488
1070,9.3260,3519
1071,9.3340,3495
1072,9.3420,3479
1073,9.3500,3500
1074,9.3580,3488
1075,9.3660,3478
1076,9.3740,3493
1077,9.3820,3474
1078,9.3900,3465
1079,9.3980,3481
1080,9.4008,3467
1081,9.4088,3463
1082,9.4168,3472
1083,9.4248,3451
1084,9.4328,3458
1085,9.4408,3460
1086,9.4488,3457
1087,9.4568,3496
1088,9.4648,3476
1089,9.4728,3478
1090,9.5023,3508
1091,9.5103,3489
1092,9.5183,3491
1093,9.5263,3511
1094,9.5343,3502
1095,9.5423,3496
1096,9.5503,3523
1097,9.5583,3506
1098,9.5663,3499
1099,9.5743,3518
1100,9.5753,3498
1101,9.5833,3487
1102,9.5913,3501
1103,9.5993,3487
1104,9.6073,3529
1105,9.6153,3489
1106,9.6233,3473
1107,9.6313,3513
1108,9.6393,3474
1109,9.6473,3457
1110,9.6757,3496
1111,9.6837,3464
1112,9.6917,3453
1113,9.6997,3470
1114,9.7077,3463
1115,9.7157,3450
1116,9.7237,3473
1117,9.7317,3463
1118,9.7397,3461
1119,9.7477,3483
1120,9.7510,3480
1121,9.7590,3473
1122,9.7670,3489
1123,9.7750,3477
1124,9.7830,3520
1125,9.7910,3493
1126,9.7990,3484
1127,9.8070,3511
1128,9.8150,3494
1129,9.8230,3482
1130,9.8528,3514
1131,9.8608,3489
1132,9.8688,3480
1133,9.8768,3495
1134,9.8848,3486
1135,9.8928,3463
1136,9.9008,3487
1137,9.9088,3476
1138,9.9168,3463
1139,9.9248,3479
1140,9.9265,3458
1141,9.9345,3497
1142,9.9425,3469
1143,9.9505,3444
1144,9.9585,3482
1145,9.9665,3448
1146,9.9745,3435
1147,9.9825,3466
1148,9.9905,3432
1149,9.9985,3420
1150,10.0268,3437
1151,10.0348,3412
1152,10.0428,3397
1153,10.0508,3420
1154,10.0588,3401
1155,10.0668,3397
1156,10.0748,3414
1157,10.0828,3391
1158,10.0908,3337
1159,10.0988,3407
1160,10.1013,3387
1161,10.1093,3488
1162,10.1173,3416
1163,10.1253,3386
1164,10.1333,3416
1165,10.1413,3397
1166,10.1493,3398
1167,10.1573,3444
1168,10.1653,3430
1169,10.1733,3440
1170,10.2019,3480
1171,10.2099,3457
1172,10.2179,3455
1173,10.2259,3491
1174,10.2339,3471
1175,10.2419,3472
1176,10.2499,3496
1177,10.2579,3479
1178,10.2659,3531
1179,10.2739,3497
1180,10.2759,3484
1181,10.2839,3530
1182,10.2919,3504
1183,10.2999,3484
1184,10.3079,3519
1185,10.3159,3488
1186,10.3239,3473
1187,10.3319,3467
1188,10.3399,3468
1189,10.3479,3465
1190,10.3772,3497
1191,10.3852,3459
1192,10.3932,3453
1193,10.4012,3467
1194,10.4092,3444
1195,10.4172,3383
1196,10.4252,3447
1197,10.4332,3438
1198,10.4412,3483
1199,10.4492,3440
1200,10.4545,3427
1201,10.4625,3468
1202,10.4705,3452
1203,10.4785,3433
1204,10.4865,3460
1205,10.4945,3441
1206,10.5025,3428
1207,10.5105,3460
1208,10.5185,3442
1209,10.5265,3433
1210,10.5520,3451
1211,10.5600,3436
1212,10.5680,3432
1213,10.5760,3456
1214,10.5840,3435
1215,10.5920,3483
1216,10.6000,3446
1217,10.6080,3440
1218,10.6160,3484
1219,10.6240,3439
1220,10.6267,3435
1221,10.6347,3476
1222,10.6427,3439
1223,10.6507,3431
1224,10.6587,3464
1225,10.6667,3446
1226,10.6747,3432
1227,10.6827,3472
1228,10.6907,3444
1229,10.6987,3440
1230,10.7516,3457
1231,10.7596,3443
1232,10.7676,3505
1233,10.7756,3460
1234,10.7836,3448
1235,10.7916,3489
1236,10.7996,3455
1237,10.8076,3442
1238,10.8156,3494
1239,10.8236,3460
1240,10.8006,3461
1241,10.8086,3513
1242,10.8166,3493
1243,10.8246,3504
1244,10.8326,3549
1245,10.8406,3536
1246,10.8486,3533
1247,10.8566,3581
1248,10.8646,3567
1249,10.8726,3569
1250,10.9019,3611
1251,10.9099,3592
1252,10.9179,3658
1253,10.9259,3612
1254,10.9339,3594
1255,10.9419,3652
1256,10.9499,3600
1257,10.9579,3579
1258,10.9659,3628
1259,10.9739,3584
1260,11.0013,3565
1261,11.0093,3615
1262,11.0173,3584
1263,11.0253,3559
1264,11.0333,3603
1265,11.0413,3573
1266,11.0493,3566
1267,11.0573,3601
1268,11.0653,3570
1269,11.0733,3660
1270,11.0755,3596
1271,11.0835,3567
1272,11.0915,3659
1273,11.0995,3596
1274,11.1075,3568
1275,11.1155,3632
1276,11.1235,3577
1277,11.1315,3552
1278,11.1395,3615
1279,11.1475,3553
1280,11.2186,3532
1281,11.2266,3579
1282,11.2346,3528
1283,11.2426,3498
1284,11.2506,3546
1285,11.2586,3503
1286,11.2666,3439
1287,11.2746,3526
1288,11.2826,3486
1289,11.2906,3603
1290,11.2513,3514
1291,11.2593,3496
1292,11.2673,3593
1293,11.2753,3521
1294,11.2833,3489
1295,11.2913,3575
1296,11.2993,3517
1297,11.3073,3489
1298,11.3153,3552
1299,11.3233,3481
1300,11.3519,3451
1301,11.3599,3496
1302,11.3679,3438
1303,11.3759,3409
1304,11.3839,3446
1305,11.3919,3396
1306,11.3999,3523
1307,11.4079,3421
1308,11.4159,3383
1309,11.4239,3506
1310,11.4265,3427
1311,11.4345,3416
1312,11.4425,3544
1313,11.4505,3476
1314,11.4585,3484
1315,11.4665,3583
1316,11.4745,3542
1317,11.4825,3521
1318,11.4905,3625
1319,11.4985,3594
1320,11.5276,3611
1321,11.5356,3709
1322,11.5436,3690
1323,11.5516,3884
1324,11.5596,3768
1325,11.5676,3731
1326,11.5756,3894
1327,11.5836,3780
1328,11.5916,3733
1329,11.5996,3870
1330,11.6007,3768
1331,11.6087,3713
1332,11.6167,3994
1333,11.6247,3779
1334,11.6327,3710
1335,11.6407,3801
1336,11.6487,3709
1337,11.6567,3659
1338,11.6647,3744
1339,11.6727,3654
1340,11.7013,3599
1341,11.7093,3660
1342,11.7173,3573
1343,11.7253,3730
1344,11.7333,3558
1345,11.7413,3469
1346,11.7493,3598
1347,11.7573,3421
1348,11.7653,3325
1349,11.7733,3409
1350,11.8013,3264
1351,11.8093,3191
1352,11.8173,3283
1353,11.8253,3165
1354,11.8333,3091
1355,11.8413,3164
1356,11.8493,3056
1357,11.8573,3004
1358,11.8653,3061
1359,11.8733,2978
1360,11.8763,3179
1361,11.8843,3041
1362,11.8923,2996
1363,11.9003,3214
1364,11.9083,3104
1365,11.9163,3086
1366,11.9243,3255
1367,11.9323,3160
1368,11.9403,3121
1369,11.9483,3235
1370,11.9513,3117
1371,11.9593,3051
1372,11.9673,3151
1373,11.9753,3041
1374,11.9833,2987
1375,11.9913,3051
1376,11.9993,2959
1377,12.0073,2911
1378,12.0153,2986
1379,12.0233,2933
1380,12.0512,3176
1381,12.0592,3074
1382,12.0672,3074
1383,12.0752,3291
1384,12.0832,3242
1385,12.0912,3265
1386,12.0992,3445
1387,12.1072,3405
1388,12.1152,3392
1389,12.1232,3537
1390,12.1278,3463
1391,12.1358,3456
1392,12.1438,3566
1393,12.1518,3497
1394,12.1598,3485
1395,12.1678,3584
1396,12.1758,3529
1397,12.1838,3735
1398,12.1918,3583
1399,12.1998,3522
1400,12.2260,3699
1401,12.2340,3537
1402,12.2420,3459
1403,12.2500,3567
1404,12.2580,3394
1405,12.2660,3305
1406,12.2740,3367
1407,12.2820,3250
1408,12.2900,3187
1409,12.2980,3293
1410,12.3021,3238
1411,12.3101,3238
1412,12.3181,3375
1413,12.3261,3307
1414,12.3341,3279
1415,12.3421,3353
1416,12.3501,3318
1417,12.3581,3513
1418,12.3661,3395
1419,12.3741,3394
1420,12.4025,3608
1421,12.4105,3536
1422,12.4185,3527
1423,12.4265,3704
1424,12.4345,3632
1425,12.4425,3607
1426,12.4505,3724
1427,12.4585,3604
1428,12.4665,3531
1429,12.4745,3571
1430,12.4786,3463
1431,12.4866,3393
1432,12.4946,3450
1433,12.5026,3359
1434,12.5106,3541
1435,12.5186,3404
1436,12.5266,3352
1437,12.5346,3527
1438,12.5426,3378
1439,12.5506,3298
1440,12.5773,3377
1441,12.5853,3159
1442,12.5933,3015
1443,12.6013,3027
1444,12.6093,2869
1445,12.6173,2774
1446,12.6253,2847
1447,12.6333,2740
1448,12.6413,2687
1449,12.6493,2752
1450,12.6512,2668
1451,12.6592,2697
1452,12.6672,2674
1453,12.6752,2586
1454,12.6832,2707
1455,12.6912,2545
1456,12.6992,2471
1457,12.7072,2628
1458,12.7152,2517
1459,12.7232,2489
1460,12.7511,2679
1461,12.7591,2595
1462,12.7671,2599
1463,12.7751,2740
1464,12.7831,2684
1465,12.7911,2678
1466,12.7991,2792
1467,12.8071,2731
1468,12.8151,2691
1469,12.8231,2756
1470,12.8274,2656
1471,12.8354,2813
1472,12.8434,2592
1473,12.8514,2483
1474,12.8594,2592
1475,12.8674,2446
1476,12.8754,2408
1477,12.8834,2540
1478,12.8914,2444
1479,12.8994,2428
1480,12.9268,2579
1481,12.9348,2543
1482,12.9428,2593
1483,12.9508,2767
1484,12.9588,2808
1485,12.9668,2888
1486,12.9748,3052
1487,12.9828,3076
1488,12.9908,3344
1489,12.9988,3276
1490,13.0023,3276
1491,13.0103,3521
1492,13.0183,3448
1493,13.0263,3444
1494,13.0343,3628
1495,13.0423,3569
1496,13.0503,3584
1497,13.0583,3772
1498,13.0663,3744
1499,13.0743,3784
1500,13.1019,3972
1501,13.1099,3959
1502,13.1179,4008
1503,13.1259,4095
1504,13.1339,4095
1505,13.1419,4095
1506,13.1499,4095
1507,13.1579,4095
1508,13.1659,4095
1509,13.1739,4095
1510,13.1791,4095
1511,13.1871,4095
1512,13.1951,4095
1513,13.2031,4095
1514,13.2111,4095
1515,13.2191,4095
1516,13.2271,4095
1517,13.2351,4095
1518,13.2431,4095
1519,13.2511,4095
1520,13.2775,4095
1521,13.2855,4095
1522,13.2935,4095
1523,13.3015,4095
1524,13.3095,4066
1525,13.3175,4095
1526,13.3255,3880
1527,13.3335,3696
1528,13.3415,3742
1529,13.3495,3479
1530,13.3507,3328
1531,13.3587,3361
1532,13.3667,3124
1533,13.3747,2965
1534,13.3827,2970
1535,13.3907,2755
1536,13.3987,2592
1537,13.4067,2598
1538,13.4147,2425
1539,13.4227,2325
1540,13.4515,2383
1541,13.4595,2308
1542,13.4675,2285
1543,13.4755,2406
1544,13.4835,2411
1545,13.4915,2653
1546,13.4995,2588
1547,13.5075,2597
1548,13.5155,2801
1549,13.5235,2748
1550,13.5261,2753
1551,13.5341,2949
1552,13.5421,2859
1553,13.5501,2855
1554,13.5581,2993
1555,13.5661,2954
1556,13.5741,2977
1557,13.5821,3148
1558,13.5901,3159
1559,13.5981,3203
1560,13.6263,3400
1561,13.6343,3395
1562,13.6423,3696
1563,13.6503,3630
1564,13.6583,3678
1565,13.6663,3946
1566,13.6743,3921
1567,13.6823,3996
1568,13.6903,4095
1569,13.6983,4095
1570,13.7272,4095
1571,13.7352,4095
1572,13.7432,4095
1573,13.7512,4095
1574,13.7592,4095
1575,13.7672,4095
1576,13.7752,4095
1577,13.7832,4095
1578,13.7912,4095
1579,13.7992,4095
1580,13.8020,4095
1581,13.8100,4095
1582,13.8180,4095
1583,13.8260,4080
1584,13.8340,3961
1585,13.8420,4086
1586,13.8500,3958
1587,13.8580,3923
1588,13.8660,4046
1589,13.8740,3963
1590,13.9263,3934
1591,13.9343,4020
1592,13.9423,3939
1593,13.9503,3917
1594,13.9583,4034
1595,13.9663,4006
1596,13.9743,4039
1597,13.9823,4095
1598,13.9903,4095
1599,13.9983,4095
1600,13.9756,4095
1601,13.9836,4095
1602,13.9916,4095
1603,13.9996,4095
1604,14.0076,4013
1605,14.0156,4081
1606,14.0236,3944
1607,14.0316,3826
1608,14.0396,3842
1609,14.0476,3653
1610,14.0761,3524
1611,14.0841,3433
1612,14.0921,3242
1613,14.1001,3067
1614,14.1081,2997
1615,14.1161,2836
1616,14.1241,2883
1617,14.1321,2701
1618,14.1401,2593
1619,14.1481,2695
1620,14.1761,2568
1621,14.1841,2517
1622,14.1921,2649
1623,14.2001,2607
1624,14.2081,2660
1625,14.2161,2851
1626,14.2241,2919
1627,14.2321,3025
1628,14.2401,3296
1629,14.2481,3393
1630,14.2763,3552
1631,14.2843,3794
1632,14.2923,3871
1633,14.3003,3963
1634,14.3083,4055
1635,14.3163,4019
1636,14.3243,4068
1637,14.3323,3809
1638,14.3403,3518
1639,14.3483,3265
1640,14.3266,2691
1641,14.3346,2038
1642,14.3426,1467
1643,14.3506,680
1644,14.3586,0
1645,14.3666,0
1646,14.3746,0
1647,14.3826,0
1648,14.3906,0
1649,14.3986,0
1650,14.4262,0
1651,14.4342,0
1652,14.4422,0
1653,14.4502,83
1654,14.4582,0
1655,14.4662,0
1656,14.4742,44
1657,14.4822,0
1658,14.4902,22
1659,14.4982,369
1660,14.5006,566
1661,14.5086,823
1662,14.5166,1248
1663,14.5246,1424
1664,14.5326,1659
1665,14.5406,2004
1666,14.5486,2147
1667,14.5566,2328
1668,14.5646,2582
1669,14.5726,2655
1670,14.6017,2751
1671,14.6097,2952
1672,14.6177,2992
1673,14.6257,3280
1674,14.6337,3264
1675,14.6417,3342
1676,14.6497,3635
1677,14.6577,3652
1678,14.6657,3738
1679,14.6737,4016
1680,14.6764,4036
1681,14.6844,4095
1682,14.6924,4095
1683,14.7004,4095
1684,14.7084,4095
1685,14.7164,4095
1686,14.7244,4095
1687,14.7324,4095
1688,14.7404,4095
1689,14.7484,4095
1690,14.7755,4095
1691,14.7835,4095
1692,14.7915,4095
1693,14.7995,4095
1694,14.8075,4095
1695,14.8155,4095
1696,14.8235,4095
1697,14.8315,4095
1698,14.8395,4095
1699,14.8475,4095
1700,14.8763,4095
1701,14.8843,4095
1702,14.8923,4095
1703,14.9003,4095
1704,14.9083,4095
1705,14.9163,4095
1706,14.9243,4095
1707,14.9323,4095
1708,14.9403,4095
1709,14.9483,4095
1710,14.9523,4095
1711,14.9603,4095
1712,14.9683,4095
1713,14.9763,4095
1714,14.9843,4095
1715,14.9923,4052
1716,15.0003,4091
1717,15.0083,3942
1718,15.0163,3831
1719,15.0243,3863
1720,15.0257,3696
1721,15.0337,3552
1722,15.0417,3584
1723,15.0497,3431
1724,15.0577,3361
1725,15.0657,3401
1726,15.0737,3335
1727,15.0817,3518
1728,15.0897,3415
1729,15.0977,3404
1730,15.1253,3602
1731,15.1333,3511
1732,15.1413,3496
1733,15.1493,3641
1734,15.1573,3525
1735,15.1653,3463
1736,15.1733,3533
1737,15.1813,3417
1738,15.1893,3367
1739,15.1973,3440
1740,15.2262,3391
1741,15.2342,3396
1742,15.2422,3529
1743,15.2502,3528
1744,15.2582,3763
1745,15.2662,3694
1746,15.2742,3710
1747,15.2822,3918
1748,15.2902,3832
1749,15.2982,3841
1750,15.3254,3848
1751,15.3334,3816
1752,15.3414,3771
1753,15.3494,3868
1754,15.3574,3731
1755,15.3654,3652
1756,15.3734,3702
1757,15.3814,3572
1758,15.3894,3517
1759,15.3974,3534
1760,15.3756,3439
1761,15.3836,3371
1762,15.3916,3388
1763,15.3996,3308
1764,15.4076,3412
1765,15.4156,3270
1766,15.4236,3193
1767,15.4316,3312
1768,15.4396,3186
1769,15.4476,3143
1770,15.4761,3252
1771,15.4841,3146
1772,15.4921,3124
1773,15.5001,3217
1774,15.5081,3158
1775,15.5161,3132
1776,15.5241,3230
1777,15.5321,3163
1778,15.5401,3147
1779,15.5481,3217
1780,15.5517,3143
1781,15.5597,3292
1782,15.5677,3148
1783,15.5757,3095
1784,15.5837,3213
1785,15.5917,3088
1786,15.5997,3024
1787,15.6077,3120
1788,15.6157,3004
1789,15.6237,2934
1790,15.6770,3032
1791,15.6850,2923
1792,15.6930,2898
1793,15.7010,2967
1794,15.7090,2885
1795,15.7170,2867
1796,15.7250,2928
1797,15.7330,2876
1798,15.7410,2843
1799,15.7490,2902
1800,15.7256,2833
1801,15.7336,2965
1802,15.7416,2831
1803,15.7496,2776
1804,15.7576,2887
1805,15.7656,2773
1806,15.7736,2722
1807,15.7816,2815
1808,15.7896,2741
1809,15.7976,2694
1810,15.8272,2783
1811,15.8352,2721
1812,15.8432,2701
1813,15.8512,2807
1814,15.8592,2778
1815,15.8672,2823
1816,15.8752,2955
1817,15.8832,3008
1818,15.8912,3266
1819,15.8992,3234
1820,15.9018,3270
1821,15.9098,3412
1822,15.9178,3345
1823,15.9258,3298
1824,15.9338,3406
1825,15.9418,3267
1826,15.9498,3215
1827,15.9578,3186
1828,15.9658,3118
1829,15.9738,3064
1830,16.0014,3089
1831,16.0094,3007
1832,16.0174,2948
1833,16.0254,2990
1834,16.0334,2900
1835,16.0414,2920
1836,16.0494,2902
1837,16.0574,2836
1838,16.0654,2974
1839,16.0734,2834
1840,16.1008,2784
1841,16.1088,3003
1842,16.1168,2834
1843,16.1248,2764
1844,16.1328,2855
1845,16.1408,2783
1846,16.1488,2756
1847,16.1568,2860
1848,16.1648,2793
1849,16.1728,2800
1850,16.1770,2801
1851,16.1850,2791
1852,16.1930,2800
1853,16.2010,2858
1854,16.2090,2821
1855,16.2170,2966
1856,16.2250,2852
1857,16.2330,2812
1858,16.2410,2950
1859,16.2490,2849
1860,16.2761,2807
1861,16.2841,2904
1862,16.2921,2796
1863,16.3001,2752
1864,16.3081,2813
1865,16.3161,2707
1866,16.3241,2656
1867,16.3321,2721
1868,16.3401,2644
1869,16.3481,2608
1870,16.3520,2622
1871,16.3600,2604
1872,16.3680,2836
1873,16.3760,2766
1874,16.3840,2710
1875,16.3920,2868
1876,16.4000,2777
1877,16.4080,2748
1878,16.4160,2888
1879,16.4240,2816
1880,16.4273,2772
1881,16.4353,3021
1882,16.4433,2864
1883,16.4513,2829
1884,16.4593,2941
1885,16.4673,2887
1886,16.4753,2891
1887,16.4833,2981
1888,16.4913,2952
1889,16.4993,2946
1890,16.5264,3076
1891,16.5344,3089
1892,16.5424,3356
1893,16.5504,3331
1894,16.5584,3394
1895,16.5664,3621
1896,16.5744,3584
1897,16.5824,3608
1898,16.5904,3743
1899,16.5984,3671
1900,16.6517,3641
1901,16.6597,3715
1902,16.6677,3620
1903,16.6757,3552
1904,16.6837,3602
1905,16.6917,3475
1906,16.6997,3436
1907,16.7077,3474
1908,16.7157,3394
1909,16.7237,3526
1910,16.7018,3367
1911,16.7098,3292
1912,16.7178,3393
1913,16.7258,3256
1914,16.7338,3186
1915,16.7418,3303
1916,16.7498,3194
1917,16.7578,3177
1918,16.7658,3290
1919,16.7738,3212
1920,16.8260,3195
1921,16.8340,3276
1922,16.8420,3219
1923,16.8500,3200
1924,16.8580,3295
1925,16.8660,3236
1926,16.8740,3211
1927,16.8820,3212
1928,16.8900,3176
1929,16.8980,3351
1930,16.8764,3230
1931,16.8844,3202
1932,16.8924,3345
1933,16.9004,3260
1934,16.9084,3224
1935,16.9164,3326
1936,16.9244,3244
1937,16.9324,3204
1938,16.9404,3319
1939,16.9484,3249
1940,16.9768,3244
1941,16.9848,3436
1942,16.9928,3334
1943,17.0008,3322
1944,17.0088,3429
1945,17.0168,3423
1946,17.0248,3608
1947,17.0328,3527
1948,17.0408,3496
1949,17.0488,3675
1950,17.0524,3585
1951,17.0604,3570
1952,17.0684,3685
1953,17.0764,3573
1954,17.0844,3552
1955,17.0924,3632
1956,17.1004,3554
1957,17.1084,3499
1958,17.1164,3584
1959,17.1244,3476
1960,17.1523,3427
1961,17.1603,3469
1962,17.1683,3363
1963,17.1763,3358
1964,17.1843,3338
1965,17.1923,3263
1966,17.2003,3392
1967,17.2083,3267
1968,17.2163,3237
1969,17.2243,3375
1970,17.2269,3319
1971,17.2349,3332
1972,17.2429,3497
1973,17.2509,3473
1974,17.2589,3517
1975,17.2669,3654
1976,17.2749,3624
1977,17.2829,3619
1978,17.2909,3687
1979,17.2989,3632
1980,17.3518,3593
1981,17.3598,3645
1982,17.3678,3564
1983,17.3758,3667
1984,17.3838,3491
1985,17.3918,3386
1986,17.3998,3454
1987,17.4078,3275
1988,17.4158,3182
1989,17.4238,3213
1990,17.4010,3067
1991,17.4090,2982
1992,17.4170,3103
1993,17.4250,2915
1994,17.4330,2799
1995,17.4410,2839
1996,17.4490,2720
1997,17.4570,2666
1998,17.4650,2694
1999,17.4730,2623
2000,17.5019,2676
2001,17.5099,2593
2002,17.5179,2543
2003,17.5259,2659
2004,17.5339,2559
2005,17.5419,2520
2006,17.5499,2672
2007,17.5579,2600
2008,17.5659,2603
2009,17.5739,2749
2010,17.5760,2702
2011,17.5840,2720
2012,17.5920,2822
2013,17.6000,2810
2014,17.6080,2810
2015,17.6160,2925
2016,17.6240,2895
2017,17.6320,2900
2018,17.6400,2979
2019,17.6480,2946
2020,17.6760,3138
2021,17.6840,3022
2022,17.6920,3015
2023,17.7000,3154
2024,17.7080,3052
2025,17.7160,3009
2026,17.7240,3112
2027,17.7320,3016
2028,17.7400,2994
2029,17.7480,3101
2030,17.7516,3025
2031,17.7596,3011
2032,17.7676,3098
2033,17.7756,3044
2034,17.7836,3035
2035,17.7916,3108
2036,17.7996,3063
2037,17.8076,3216
2038,17.8156,3108
2039,17.8236,3057
2040,17.8510,3346
2041,17.8590,3123
2042,17.8670,3035
2043,17.8750,3135
2044,17.8830,3012
2045,17.8910,2979
2046,17.8990,3068
2047,17.9070,2988
2048,17.9150,2952
2049,17.9230,3072
2050,17.9259,3040
2051,17.9339,3071
2052,17.9419,3231
2053,17.9499,3256
2054,17.9579,3338
2055,17.9659,3469
2056,17.9739,3490
2057,17.9819,3696
2058,17.9899,3615
2059,17.9979,3591
2060,18.0263,3727
2061,18.0343,3640
2062,18.0423,3593
2063,18.0503,3704
2064,18.0583,3598
2065,18.0663,3543
2066,18.0743,3618
2067,18.0823,3513
2068,18.0903,3452
2069,18.0983,3482
2070,18.1020,3375
2071,18.1100,3308
2072,18.1180,3411
2073,18.1260,3267
2074,18.1340,3380
2075,18.1420,3213
2076,18.1500,3130
2077,18.1580,3259
2078,18.1660,3121
2079,18.1740,3088
2080,18.2007,3186
2081,18.2087,3088
2082,18.2167,3055
2083,18.2247,3077
2084,18.2327,3074
2085,18.2407,3085
2086,18.2487,3215
2087,18.2567,3160
2088,18.2647,3177
2089,18.2727,3253
2090,18.3010,3195
2091,18.3090,3202
2092,18.3170,3216
2093,18.3250,3160
2094,18.3330,3280
2095,18.3410,3156
2096,18.3490,3077
2097,18.3570,3183
2098,18.3650,3064
2099,18.3730,3011
2100,18.3772,3107
2101,18.3852,3004
2102,18.3932,2973
2103,18.4012,3031
2104,18.4092,2960
2105,18.4172,2905
2106,18.4252,2976
2107,18.4332,2896
2108,18.4412,2863
2109,18.4492,2970
2110,18.4512,2955
2111,18.4592,3175
2112,18.4672,3094
2113,18.4752,3083
2114,18.4832,3219
2115,18.4912,3103
2116,18.4992,3061
2117,18.5072,3159
2118,18.5152,3051
2119,18.5232,2988
2120,18.5540,3059
2121,18.5620,2922
2122,18.5700,2855
2123,18.5780,2885
2124,18.5860,2762
2125,18.5940,2710
2126,18.6020,2745
2127,18.6100,2677
2128,18.6180,2713
2129,18.6260,2736
2130,18.6260,2713
2131,18.6340,3076
2132,18.6420,2911
2133,18.6500,2889
2134,18.6580,3061
2135,18.6660,3000
2136,18.6740,3014
2137,18.6820,3136
2138,18.6900,3063
2139,18.6980,3024
2140,18.7269,3115
2141,18.7349,3041
2142,18.7429,3022
2143,18.7509,3128
2144,18.7589,3071
2145,18.7669,3078
2146,18.7749,3159
2147,18.7829,3129
2148,18.7909,3299
2149,18.7989,3175
2150,18.8008,3174
2151,18.8088,3340
2152,18.8168,3316
2153,18.8248,3323
2154,18.8328,3516
2155,18.8408,3459
2156,18.8488,3467
2157,18.8568,3599
2158,18.8648,3533
2159,18.8728,3528
2160,18.9010,3621
2161,18.9090,3563
2162,18.9170,3540
2163,18.9250,3634
2164,18.9330,3579
2165,18.9410,3753
2166,18.9490,3639
2167,18.9570,3581
2168,18.9650,3732
2169,18.9730,3594
2170,18.9791,3538
2171,18.9871,3615
2172,18.9951,3491
2173,19.0031,3417
2174,19.0111,3488
2175,19.0191,3378
2176,19.0271,3319
2177,19.0351,3404
2178,19.0431,3308
2179,19.0511,3250
2180,19.0762,3272
2181,19.0842,3162
2182,19.0922,3075
2183,19.1002,3056
2184,19.1082,2927
2185,19.1162,2980
2186,19.1242,2761
2187,19.1322,2601
2188,19.1402,2636
2189,19.1482,2413
2190,19.1508,2255
2191,19.1588,2276
2192,19.1668,2045
2193,19.1748,1912
2194,19.1828,1916
2195,19.1908,1744
2196,19.1988,1627
2197,19.2068,1658
2198,19.2148,1547
2199,19.2228,1500
2200,19.2545,1597
2201,19.2625,1536
2202,19.2705,1768
2203,19.2785,1638
2204,19.2865,1623
2205,19.2945,1849
2206,19.3025,1786
2207,19.3105,1822
2208,19.3185,2059
2209,19.3265,2064
2210,19.3507,2134
2211,19.3587,2388
2212,19.3667,2386
2213,19.3747,2429
2214,19.3827,2572
2215,19.3907,2517
2216,19.3987,2491
2217,19.4067,2573
2218,19.4147,2511
2219,19.4227,2481
2220,19.4261,2576
2221,19.4341,2535
2222,19.4421,2704
2223,19.4501,2605
2224,19.4581,2591
2225,19.4661,2731
2226,19.4741,2683
2227,19.4821,2703
2228,19.4901,2769
2229,19.4981,2823
2230,19.5259,2897
2231,19.5339,3031
2232,19.5419,3057
2233,19.5499,3108
2234,19.5579,3219
2235,19.5659,3260
2236,19.5739,3315
2237,19.5819,3418
2238,19.5899,3469
2239,19.5979,3622
2240,19.6020,3634
2241,19.6100,3680
2242,19.6180,3809
2243,19.6260,3832
2244,19.6340,3873
2245,19.6420,3992
2246,19.6500,4001
2247,19.6580,4041
2248,19.6660,4095
2249,19.6740,4095
2250,19.7011,4095
2251,19.7091,4095
2252,19.7171,4095
2253,19.7251,4095
2254,19.7331,4095
2255,19.7411,4095
2256,19.7491,4095
2257,19.7571,4095
2258,19.7651,4095
2259,19.7731,4095
2260,19.7760,4095
2261,19.7840,4095
2262,19.7920,4095
2263,19.8000,4095
2264,19.8080,4095
2265,19.8160,4095
2266,19.8240,4095
2267,19.8320,4095
2268,19.8400,4095
2269,19.8480,4095
2270,19.8761,4095
2271,19.8841,4095
2272,19.8921,4095
2273,19.9001,4095
2274,19.9081,4095
2275,19.9161,4095
2276,19.9241,4095
2277,19.9321,4095
2278,19.9401,4095
2279,19.9481,4095
2280,19.9518,4095
2281,19.9598,4095
2282,19.9678,4095
2283,19.9758,4095
2284,19.9838,4095
2285,19.9918,4095
2286,19.9998,4095
2287,20.0078,4095
2288,20.0158,4095
2289,20.0238,4095
2290,20.0518,4090
2291,20.0598,4093
2292,20.0678,4016
2293,20.0758,4095
2294,20.0838,3984
2295,20.0918,3926
2296,20.0998,4007
2297,20.1078,3915
2298,20.1158,3876
2299,20.1238,3955
2300,20.1268,3892
2301,20.1348,3863
2302,20.1428,3934
2303,20.1508,3862
2304,20.1588,3828
2305,20.1668,3879
2306,20.1748,3820
2307,20.1828,3775
2308,20.1908,3824
2309,20.1988,3760
2310,20.2512,3723
2311,20.2592,3760
2312,20.2672,3700
2313,20.2752,3797
2314,20.2832,3688
2315,20.2912,3621
2316,20.2992,3725
2317,20.3072,3621
2318,20.3152,3574
2319,20.3232,3656
2320,20.3010,3558
2321,20.3090,3516
2322,20.3170,3592
2323,20.3250,3508
2324,20.3330,3466
2325,20.3410,3530
2326,20.3490,3458
2327,20.3570,3427
2328,20.3650,3477
2329,20.3730,3423
2330,20.4010,3561
2331,20.4090,3452
2332,20.4170,3409
2333,20.4250,3520
2334,20.4330,3428
2335,20.4410,3391
2336,20.4490,3497
2337,20.4570,3407
2338,20.4650,3384
2339,20.4730,3471
2340,20.4773,3404
2341,20.4853,3375
2342,20.4933,3447
2343,20.5013,3389
2344,20.5093,3364
2345,20.5173,3432
2346,20.5253,3380
2347,20.5333,3337
2348,20.5413,3425
2349,20.5493,3384
2350,20.5769,3536
2351,20.5849,3436
2352,20.5929,3402
2353,20.6009,3519
2354,20.6089,3441
2355,20.6169,3422
2356,20.6249,3545
2357,20.6329,3485
2358,20.6409,3480
2359,20.6489,3583
2360,20.6519,3514
2361,20.6599,3504
2362,20.6679,3602
2363,20.6759,3535
2364,20.6839,3515
2365,20.6919,3583
2366,20.6999,3536
2367,20.7079,3704
2368,20.7159,3561
2369,20.7239,3513
2370,20.7513,3668
2371,20.7593,3527
2372,20.7673,3464
2373,20.7753,3559
2374,20.7833,3448
2375,20.7913,3406
2376,20.7993,3480
2377,20.8073,3379
2378,20.8153,3328
2379,20.8233,3401
2380,20.8265,3324
2381,20.8345,3274
2382,20.8425,3350
2383,20.8505,3271
2384,20.8585,3307
2385,20.8665,3246
2386,20.8745,3236
2387,20.8825,3400
2388,20.8905,3287
2389,20.8985,3248
2390,20.9261,3387
2391,20.9341,3281
2392,20.9421,3241
2393,20.9501,3343
2394,20.9581,3262
2395,20.9661,3226
2396,20.9741,3322
2397,20.9821,3244
2398,20.9901,3216
2399,20.9981,3297
2400,21.0018,3235
2401,21.0098,3216
2402,21.0178,3289
2403,21.0258,3231
2404,21.0338,3397
2405,21.0418,3274
2406,21.0498,3228
2407,21.0578,3367
2408,21.0658,3262
2409,21.0738,3228
2410,21.1019,3361
2411,21.1099,3257
2412,21.1179,3226
2413,21.1259,3321
2414,21.1339,3241
2415,21.1419,3205
2416,21.1499,3295
2417,21.1579,3239
2418,21.1659,3222
2419,21.1739,3312
2420,21.1760,3264
2421,21.1840,3450
2422,21.1920,3349
2423,21.2000,3319
2424,21.2080,3488
2425,21.2160,3393
2426,21.2240,3368
2427,21.2320,3515
2428,21.2400,3418
2429,21.2480,3381
2430,21.2761,3516
2431,21.2841,3406
2432,21.2921,3366
2433,21.3001,3440
2434,21.3081,3351
2435,21.3161,3300
2436,21.3241,3358
2437,21.3321,3280
2438,21.3401,3240
2439,21.3481,3301
2440,21.3513,3228
2441,21.3593,3406
2442,21.3673,3258
2443,21.3753,3198
2444,21.3833,3336
2445,21.3913,3221
2446,21.3993,3183
2447,21.4073,3295
2448,21.4153,3210
2449,21.4233,3184
2450,21.4509,3292
2451,21.4589,3207
2452,21.4669,3187
2453,21.4749,3271
2454,21.4829,3212
2455,21.4909,3201
2456,21.4989,3275
2457,21.5069,3234
2458,21.5149,3412
2459,21.5229,3299
2460,21.5260,3261
2461,21.5340,3435
2462,21.5420,3327
2463,21.5500,3291
2464,21.5580,3434
2465,21.5660,3346
2466,21.5740,3318
2467,21.5820,3428
2468,21.5900,3352
2469,21.5980,3319
2470,21.6265,3423
2471,21.6345,3343
2472,21.6425,3321
2473,21.6505,3392
2474,21.6585,3335
2475,21.6665,3304
2476,21.6745,3384
2477,21.6825,3329
2478,21.6905,3495
2479,21.6985,3383
2480,21.7038,3343
2481,21.7118,3510
2482,21.7198,3415
2483,21.7278,3387
2484,21.7358,3525
2485,21.7438,3464
2486,21.7518,3467
2487,21.7598,3604
2488,21.7678,3553
2489,21.7758,3560
2490,21.8017,3681
2491,21.8097,3631
2492,21.8177,3631
2493,21.8257,3716
2494,21.8337,3671
2495,21.8417,3847
2496,21.8497,3715
2497,21.8577,3653
2498,21.8657,3680
2499,21.8737,3625
2500,21.8768,3610
2501,21.8848,3753
2502,21.8928,3619
2503,21.9008,3563
2504,21.9088,3649
2505,21.9168,3534
2506,21.9248,3492
2507,21.9328,3557
2508,21.9408,3452
2509,21.9488,3406
2510,21.9777,3480
2511,21.9857,3379
2512,21.9937,3546
2513,22.0017,3388
2514,22.0097,3325
2515,22.0177,3488
2516,22.0257,3353
2517,22.0337,3299
2518,22.0417,3431
2519,22.0497,3332
2520,22.0510,3292
2521,22.0590,3429
2522,22.0670,3320
2523,22.0750,3286
2524,22.0830,3388
2525,22.0910,3310
2526,22.0990,3282
2527,22.1070,3376
2528,22.1150,3295
2529,22.1230,3265
2530,22.1519,3355
2531,22.1599,3282
2532,22.1679,3456
2533,22.1759,3312
2534,22.1839,3259
2535,22.1919,3404
2536,22.1999,3284
2537,22.2079,3244
2538,22.2159,3381
2539,22.2239,3280
2540,22.2524,3235
2541,22.2604,3356
2542,22.2684,3264
2543,22.2764,3219
2544,22.2844,3303
2545,22.2924,3226
2546,22.3004,3200
2547,22.3084,3276
2548,22.3164,3228
2549,22.3244,3431
2550,22.3511,3315
2551,22.3591,3289
2552,22.3671,3520
2553,22.3751,3410
2554,22.3831,3387
2555,22.3911,3567
2556,22.3991,3483
2557,22.4071,3474
2558,22.4151,3607
2559,22.4231,3529
2560,22.4264,3504
2561,22.4344,3611
2562,22.4424,3531
2563,22.4504,3477
2564,22.4584,3570
2565,22.4664,3475
2566,22.4744,3432
2567,22.4824,3475
2568,22.4904,3400
2569,22.4984,3564
2570,22.5021,3384
2571,22.5101,3312
2572,22.5181,3631
2573,22.5261,3370
2574,22.5341,3245
2575,22.5421,3339
2576,22.5501,3215
2577,22.5581,3164
2578,22.5661,3267
2579,22.5741,3169
2580,22.6032,3142
2581,22.6112,3241
2582,22.6192,3158
2583,22.6272,3131
2584,22.6352,3212
2585,22.6432,3152
2586,22.6512,3347
2587,22.6592,3216
2588,22.6672,3155
2589,22.6752,3328
2590,22.6773,3208
2591,22.6853,3169
2592,22.6933,3328
2593,22.7013,3200
2594,22.7093,3162
2595,22.7173,3275
2596,22.7253,3183
2597,22.7333,3151
2598,22.7413,3259
2599,22.7493,3178
2600,22.7760,3154
2601,22.7840,3246
2602,22.7920,3167
2603,22.8000,3142
2604,22.8080,3217
2605,22.8160,3153
2606,22.8240,3318
2607,22.8320,3190
2608,22.8400,3151
2609,22.8480,3310
2610,22.8526,3200
2611,22.8606,3167
2612,22.8686,3327
2613,22.8766,3237
2614,22.8846,3232
2615,22.8926,3349
2616,22.9006,3300
2617,22.9086,3309
2618,22.9166,3445
2619,22.9246,3427
2620,22.9519,3459
2621,22.9599,3603
2622,22.9679,3578
2623,22.9759,3806
2624,22.9839,3696
2625,22.9919,3660
2626,22.9999,3826
2627,23.0079,3703
2628,23.0159,3658
2629,23.0239,3785
2630,23.1019,3663
2631,23.1099,3599
2632,23.1179,3717
2633,23.1259,3595
2634,23.1339,3519
2635,23.1419,3593
2636,23.1499,3483
2637,23.1579,3431
2638,23.1659,3487
2639,23.1739,3387
2640,23.1515,3376
2641,23.1595,3319
2642,23.1675,3284
2643,23.1755,3314
2644,23.1835,3255
2645,23.1915,3237
2646,23.1995,3442
2647,23.2075,3279
2648,23.2155,3238
2649,23.2235,3372
2650,23.2277,3487
2651,23.2357,3340
2652,23.2437,3258
2653,23.2517,3445
2654,23.2597,3297
2655,23.2677,3239
2656,23.2757,3404
2657,23.2837,3283
2658,23.2917,3238
2659,23.2997,3372
2660,23.3018,3263
2661,23.3098,3219
2662,23.3178,3331
2663,23.3258,3238
2664,23.3338,3188
2665,23.3418,3273
2666,23.3498,3190
2667,23.3578,3164
2668,23.3658,3171
2669,23.3738,3153
2670,23.4010,3367
2671,23.4090,3218
2672,23.4170,3167
2673,23.4250,3318
2674,23.4330,3191
2675,23.4410,3160
2676,23.4490,3184
2677,23.4570,3160
2678,23.4650,3142
2679,23.4730,3288
2680,23.4768,3196
2681,23.4848,3169
2682,23.4928,3279
2683,23.5008,3203
2684,23.5088,3176
2685,23.5168,3256
2686,23.5248,3198
2687,23.5328,3184
2688,23.5408,3202
2689,23.5488,3191
2690,23.5761,3402
2691,23.5841,3267
2692,23.5921,3236
2693,23.6001,3395
2694,23.6081,3303
2695,23.6161,3303
2696,23.6241,3459
2697,23.6321,3413
2698,23.6401,3415
2699,23.6481,3559
2700,23.6518,3514
2701,23.6598,3518
2702,23.6678,3643
2703,23.6758,3575
2704,23.6838,3561
2705,23.6918,3620
2706,23.6998,3562
2707,23.7078,3727
2708,23.7158,3569
2709,23.7238,3502
2710,23.7514,3646
2711,23.7594,3496
2712,23.7674,3429
2713,23.7754,3539
2714,23.7834,3424
2715,23.7914,3375
2716,23.7994,3463
2717,23.8074,3363
2718,23.8154,3319
2719,23.8234,3394
2720,23.8271,3309
2721,23.8351,3271
2722,23.8431,3368
2723,23.8511,3281
2724,23.8591,3465
2725,23.8671,3332
2726,23.8751,3282
2727,23.8831,3320
2728,23.8911,3288
2729,23.8991,3290
2730,23.9269,3455
2731,23.9349,3360
2732,23.9429,3314
2733,23.9509,3444
2734,23.9589,3360
2735,23.9669,3324
2736,23.9749,3431
2737,23.9829,3364
2738,23.9909,3328
2739,23.9989,3411
2740,24.0018,3338
2741,24.0098,3315
2742,24.0178,3384
2743,24.0258,3319
2744,24.0338,3496
2745,24.0418,3354
2746,24.0498,3305
2747,24.0578,3454
2748,24.0658,3340
2749,24.0738,3301
2750,24.1038,3438
2751,24.1118,3336
2752,24.1198,3298
2753,24.1278,3398
2754,24.1358,3321
2755,24.1438,3286
2756,24.1518,3386
2757,24.1598,3306
2758,24.1678,3288
2759,24.1758,3367
2760,24.2018,3311
2761,24.2098,3401
2762,24.2178,3361
2763,24.2258,3316
2764,24.2338,3463
2765,24.2418,3351
2766,24.2498,3312
2767,24.2578,3446
2768,24.2658,3341
2769,24.2738,3308
2770,24.2769,3441
2771,24.2849,3352
2772,24.2929,3322
2773,24.3009,3424
2774,24.3089,3355
2775,24.3169,3336
2776,24.3249,3412
2777,24.3329,3355
2778,24.3409,3334
2779,24.3489,3408
2780,24.3513,3360
2781,24.3593,3533
2782,24.3673,3407
2783,24.3753,3360
2784,24.3833,3483
2785,24.3913,3378
2786,24.3993,3344
2787,24.4073,3457
2788,24.4153,3368
2789,24.4233,3336
2790,24.4510,3441
2791,24.4590,3358
2792,24.4670,3324
2793,24.4750,3402
2794,24.4830,3338
2795,24.4910,3311
2796,24.4990,3380
2797,24.5070,3329
2798,24.5150,3491
2799,24.5230,3365
2800,24.5260,3323
2801,24.5340,3482
2802,24.5420,3375
2803,24.5500,3337
2804,24.5580,3462
2805,24.5660,3375
2806,24.5740,3354
2807,24.5820,3456
2808,24.5900,3379
2809,24.5980,3360
2810,24.6260,3452
2811,24.6340,3392
2812,24.6420,3359
2813,24.6500,3432
2814,24.6580,3383
2815,24.6660,3371
2816,24.6740,3431
2817,24.6820,3382
2818,24.6900,3540
2819,24.6980,3424
2820,24.7024,3382
2821,24.7104,3511
2822,24.7184,3414
2823,24.7264,3384
2824,24.7344,3488
2825,24.7424,3402
2826,24.7504,3375
2827,24.7584,3480
2828,24.7664,3411
2829,24.7744,3404
2830,24.8260,3504
2831,24.8340,3467
2832,24.8420,3474
2833,24.8500,3571
2834,24.8580,3565
2835,24.8660,3761
2836,24.8740,3675
2837,24.8820,3660
2838,24.8900,3822
2839,24.8980,3729
2840,24.8759,3696
2841,24.8839,3823
2842,24.8919,3714
2843,24.8999,3659
2844,24.9079,3751
2845,24.9159,3644
2846,24.9239,3569
2847,24.9319,3641
2848,24.9399,3544
2849,24.9479,3497
2850,24.9771,3555
2851,24.9851,3461
2852,24.9931,3431
2853,25.0011,3449
2854,25.0091,3380
2855,25.0171,3521
2856,25.0251,3379
2857,25.0331,3328
2858,25.0411,3436
2859,25.0491,3327
2860,25.0518,3286
2861,25.0598,3408
2862,25.0678,3313
2863,25.0758,3280
2864,25.0838,3372
2865,25.0918,3312
2866,25.0998,3288
2867,25.1078,3367
2868,25.1158,3307
2869,25.1238,3288
2870,25.1519,3364
2871,25.1599,3304
2872,25.1679,3469
2873,25.1759,3331
2874,25.1839,3286
2875,25.1919,3425
2876,25.1999,3308
2877,25.2079,3261
2878,25.2159,3361
2879,25.2239,3252
2880,25.2514,3196
2881,25.2594,3268
2882,25.2674,3145
2883,25.2754,3087
2884,25.2834,3127
2885,25.2914,3030
2886,25.2994,2978
2887,25.3074,3007
2888,25.3154,2928
2889,25.3234,2926
2890,25.3271,2890
2891,25.3351,2824
2892,25.3431,2936
2893,25.3511,2825
2894,25.3591,2784
2895,25.3671,2860
2896,25.3751,2791
2897,25.3831,2781
2898,25.3911,2876
2899,25.3991,2843
2900,25.4260,2856
2901,25.4340,2958
2902,25.4420,2960
2903,25.4500,2982
2904,25.4580,3043
2905,25.4660,3089
2906,25.4740,3143
2907,25.4820,3231
2908,25.4900,3241
2909,25.4980,3366
2910,25.5010,3337
2911,25.5090,3347
2912,25.5170,3447
2913,25.5250,3413
2914,25.5330,3413
2915,25.5410,3504
2916,25.5490,3482
2917,25.5570,3483
2918,25.5650,3556
2919,25.5730,3527
2920,25.6021,3525
2921,25.6101,3596
2922,25.6181,3570
2923,25.6261,3575
2924,25.6341,3636
2925,25.6421,3613
2926,25.6501,3748
2927,25.6581,3680
2928,25.6661,3661
2929,25.6741,3775
2930,25.6761,3734
2931,25.6841,3731
2932,25.6921,3848
2933,25.7001,3816
2934,25.7081,3823
2935,25.7161,3904
2936,25.7241,3880
2937,25.7321,3875
2938,25.7401,3955
2939,25.7481,3917
2940,25.7761,3905
2941,25.7841,3965
2942,25.7921,3918
2943,25.8001,3908
2944,25.8081,3943
2945,25.8161,3911
2946,25.8241,4030
2947,25.8321,3936
2948,25.8401,3889
2949,25.8481,3983
2950,25.8522,3888
2951,25.8602,3840
2952,25.8682,3917
2953,25.8762,3811
2954,25.8842,3772
2955,25.8922,3824
2956,25.9002,3727
2957,25.9082,3671
2958,25.9162,3720
2959,25.9242,3617
2960,25.9511,3560
2961,25.9591,3580
2962,25.9671,3490
2963,25.9751,3583
2964,25.9831,3451
2965,25.9911,3366
2966,25.9991,3447
2967,26.0071,3314
2968,26.0151,3243
2969,26.0231,3312
2970,26.0261,3208
2971,26.0341,3155
2972,26.0421,3217
2973,26.0501,3147
2974,26.0581,3118
2975,26.0661,3195
2976,26.0741,3150
2977,26.0821,3148
2978,26.0901,3224
2979,26.0981,3193
2980,26.1268,3182
2981,26.1348,3270
2982,26.1428,3260
2983,26.1508,3387
2984,26.1588,3326
2985,26.1668,3328
2986,26.1748,3449
2987,26.1828,3392
2988,26.1908,3366
2989,26.1988,3472
2990,26.2020,3401
2991,26.2100,3379
2992,26.2180,3463
2993,26.2260,3400
2994,26.2340,3375
2995,26.2420,3436
2996,26.2500,3394
2997,26.2580,3386
2998,26.2660,3450
2999,26.2740,3407
3000,26.3019,3566
3001,26.3099,3466
3002,26.3179,3439
3003,26.3259,3550
3004,26.3339,3472
3005,26.3419,3440
3006,26.3499,3539
3007,26.3579,3460
3008,26.3659,3426
3009,26.3739,3512
3010,26.3761,3429
3011,26.3841,3393
3012,26.3921,3451
3013,26.4001,3385
3014,26.4081,3338
3015,26.4161,3381
3016,26.4241,3327
3017,26.4321,3318
3018,26.4401,3329
3019,26.4481,3285
3020,26.4763,3415
3021,26.4843,3308
3022,26.4923,3272
3023,26.5003,3365
3024,26.5083,3286
3025,26.5163,3261
3026,26.5243,3362
3027,26.5323,3309
3028,26.5403,3304
3029,26.5483,3389
3030,26.5511,3352
3031,26.5591,3362
3032,26.5671,3443
3033,26.5751,3410
3034,26.5831,3414
3035,26.5911,3476
3036,26.5991,3435
3037,26.6071,3573
3038,26.6151,3476
3039,26.6231,3435
3040,26.6519,3559
3041,26.6599,3471
3042,26.6679,3430
3043,26.6759,3519
3044,26.6839,3436
3045,26.6919,3404
3046,26.6999,3474
3047,26.7079,3402
3048,26.7159,3372
3049,26.7239,3423
3050,26.7269,3362
3051,26.7349,3332
3052,26.7429,3383
3053,26.7509,3335
3054,26.7589,3463
3055,26.7669,3360
3056,26.7749,3316
3057,26.7829,3434
3058,26.7909,3352
3059,26.7989,3321
3060,26.8260,3423
3061,26.8340,3343
3062,26.8420,3319
3063,26.8500,3408
3064,26.8580,3342
3065,26.8660,3325
3066,26.8740,3405
3067,26.8820,3347
3068,26.8900,3336
3069,26.8980,3405
3070,26.9011,3369
3071,26.9091,3360
3072,26.9171,3416
3073,26.9251,3387
3074,26.9331,3499
3075,26.9411,3420
3076,26.9491,3392
3077,26.9571,3495
3078,26.9651,3416
3079,26.9731,3387
3080,27.0010,3488
3081,27.0090,3416
3082,27.0170,3389
3083,27.0250,3459
3084,27.0330,3407
3085,27.0410,3389
3086,27.0490,3449
3087,27.0570,3407
3088,27.0650,3392
3089,27.0730,3448
3090,27.0779,3402
3091,27.0859,3523
3092,27.0939,3429
3093,27.1019,3387
3094,27.1099,3497
3095,27.1179,3424
3096,27.1259,3386
3097,27.1339,3469
3098,27.1419,3399
3099,27.1499,3372
3100,27.1761,3451
3101,27.1841,3376
3102,27.1921,3348
3103,27.2001,3414
3104,27.2081,3360
3105,27.2161,3340
3106,27.2241,3394
3107,27.2321,3347
3108,27.2401,3306
3109,27.2481,3385
3110,27.2518,3352
3111,27.2598,3476
3112,27.2678,3401
3113,27.2758,3367
3114,27.2838,3488
3115,27.2918,3420
3116,27.2998,3401
3117,27.3078,3501
3118,27.3158,3451
3119,27.3238,3446
3120,27.3514,3539
3121,27.3594,3485
3122,27.3674,3480
3123,27.3754,3558
3124,27.3834,3519
3125,27.3914,3503
3126,27.3994,3563
3127,27.4074,3520
3128,27.4154,3657
3129,27.4234,3551
3130,27.4261,3505
3131,27.4341,3618
3132,27.4421,3520
3133,27.4501,3475
3134,27.4581,3565
3135,27.4661,3471
3136,27.4741,3427
3137,27.4821,3503
3138,27.4901,3421
3139,27.4981,3388
3140,27.5261,3434
3141,27.5341,3363
3142,27.5421,3319
3143,27.5501,3360
3144,27.5581,3300
3145,27.5661,3308
3146,27.5741,3301
3147,27.5821,3242
3148,27.5901,3327
3149,27.5981,3231
3150,27.6019,3181
3151,27.6099,3260
3152,27.6179,3171
3153,27.6259,3139
3154,27.6339,3196
3155,27.6419,3148
3156,27.6499,3136
3157,27.6579,3208
3158,27.6659,3179
3159,27.6739,3178
3160,27.7010,3247
3161,27.7090,3238
3162,27.7170,3240
3163,27.7250,3296
3164,27.7330,3284
3165,27.7410,3399
3166,27.7490,3341
3167,27.7570,3328
3168,27.7650,3425
3169,27.7730,3374
3170,27.7760,3362
3171,27.7840,3449
3172,27.7920,3400
3173,27.8000,3382
3174,27.8080,3438
3175,27.8160,3394
3176,27.8240,3367
3177,27.8320,3410
3178,27.8400,3352
3179,27.8480,3327
3180,27.8761,3367
3181,27.8841,3320
3182,27.8921,3414
3183,27.9001,3333
3184,27.9081,3310
3185,27.9161,3392
3186,27.9241,3327
3187,27.9321,3309
3188,27.9401,3379
3189,27.9481,3336
3190,27.9523,3336
3191,27.9603,3395
3192,27.9683,3359
3193,27.9763,3350
3194,27.9843,3400
3195,27.9923,3375
3196,28.0003,3390
3197,28.0083,3439
3198,28.0163,3426
3199,28.0243,3432
3200,28.0519,3482
3201,28.0599,3479
3202,28.0679,3574
3203,28.0759,3532
3204,28.0839,3527
3205,28.0919,3615
3206,28.0999,3575
3207,28.1079,3572
3208,28.1159,3637
3209,28.1239,3596
3210,28.1515,3596
3211,28.1595,3657
3212,28.1675,3616
3213,28.1755,3605
3214,28.1835,3640
3215,28.1915,3607
3216,28.1995,3600
3217,28.2075,3635
3218,28.2155,3608
3219,28.2235,3692
3220,28.2269,3620
3221,28.2349,3593
3222,28.2429,3664
3223,28.2509,3596
3224,28.2589,3559
3225,28.2669,3615
3226,28.2749,3554
3227,28.2829,3517
3228,28.2909,3580
3229,28.2989,3524
3230,28.3268,3495
3231,28.3348,3546
3232,28.3428,3500
3233,28.3508,3488
3234,28.3588,3523
3235,28.3668,3483
3236,28.3748,3430
3237,28.3828,3504
3238,28.3908,3480
3239,28.3988,3570
3240,28.4018,3504
3241,28.4098,3479
3242,28.4178,3562
3243,28.4258,3504
3244,28.4338,3482
3245,28.4418,3540
3246,28.4498,3488
3247,28.4578,3464
3248,28.4658,3530
3249,28.4738,3469
3250,28.5011,3456
3251,28.5091,3500
3252,28.5171,3452
3253,28.5251,3432
3254,28.5331,3460
3255,28.5411,3436
3256,28.5491,3527
3257,28.5571,3451
3258,28.5651,3417
3259,28.5731,3495
3260,28.5773,3427
3261,28.5853,3409
3262,28.5933,3480
3263,28.6013,3430
3264,28.6093,3408
3265,28.6173,3465
3266,28.6253,3424
3267,28.6333,3403
3268,28.6413,3461
3269,28.6493,3414
3270,28.6773,3396
3271,28.6853,3443
3272,28.6933,3407
3273,28.7013,3524
3274,28.7093,3437
3275,28.7173,3416
3276,28.7253,3516
3277,28.7333,3462
3278,28.7413,3439
3279,28.7493,3534
3280,28.7510,3481
3281,28.7590,3472
3282,28.7670,3634
3283,28.7750,3522
3284,28.7830,3481
3285,28.7910,3536
3286,28.7990,3493
3287,28.8070,3465
3288,28.8150,3524
3289,28.8230,3483
3290,28.8517,3468
3291,28.8597,3508
3292,28.8677,3462
3293,28.8757,3559
3294,28.8837,3484
3295,28.8917,3442
3296,28.8997,3532
3297,28.9077,3450
3298,28.9157,3417
3299,28.9237,3487
3300,28.9511,3419
3301,28.9591,3384
3302,28.9671,3447
3303,28.9751,3387
3304,28.9831,3367
3305,28.9911,3417
3306,28.9991,3371
3307,29.0071,3358
3308,29.0151,3395
3309,29.0231,3364
3310,29.0518,3461
3311,29.0598,3389
3312,29.0678,3363
3313,29.0758,3463
3314,29.0838,3395
3315,29.0918,3364
3316,29.0998,3445
3317,29.1078,3385
3318,29.1158,3365
3319,29.1238,3450
3320,29.1010,3388
3321,29.1090,3379
3322,29.1170,3444
3323,29.1250,3401
3324,29.1330,3381
3325,29.1410,3432
3326,29.1490,3393
3327,29.1570,3378
3328,29.1650,3418
3329,29.1730,3380
3330,29.2015,3489
3331,29.2095,3403
3332,29.2175,3368
3333,29.2255,3465
3334,29.2335,3396
3335,29.2415,3377
3336,29.2495,3451
3337,29.2575,3400
3338,29.2655,3374
3339,29.2735,3448
3340,29.3012,3392
3341,29.3092,3372
3342,29.3172,3420
3343,29.3252,3383
3344,29.3332,3365
3345,29.3412,3411
3346,29.3492,3369
3347,29.3572,3486
3348,29.3652,3408
3349,29.3732,3386
3350,29.3762,3489
3351,29.3842,3433
3352,29.3922,3409
3353,29.4002,3515
3354,29.4082,3467
3355,29.4162,3442
3356,29.4242,3528
3357,29.4322,3483
3358,29.4402,3471
3359,29.4482,3544
3360,29.4513,3503
3361,29.4593,3483
3362,29.4673,3545
3363,29.4753,3503
3364,29.4833,3459
3365,29.4913,3518
3366,29.4993,3480
3367,29.5073,3582
3368,29.5153,3484
3369,29.5233,3439
3370,29.5518,3536
3371,29.5598,3448
3372,29.5678,3407
3373,29.5758,3472
3374,29.5838,3404
3375,29.5918,3371
3376,29.5998,3429
3377,29.6078,3369
3378,29.6158,3349
3379,29.6238,3399
3380,29.6269,3356
3381,29.6349,3327
3382,29.6429,3383
3383,29.6509,3336
3384,29.6589,3450
3385,29.6669,3371
3386,29.6749,3344
3387,29.6829,3448
3388,29.6909,3381
3389,29.6989,3351
3390,29.7261,3447
3391,29.7341,3379
3392,29.7421,3365
3393,29.7501,3432
3394,29.7581,3371
3395,29.7661,3364
3396,29.7741,3421
3397,29.7821,3380
3398,29.7901,3355
3399,29.7981,3412
3400,29.8021,3370
3401,29.8101,3421
3402,29.8181,3399
3403,29.8261,3360
3404,29.8341,3456
3405,29.8421,3379
3406,29.8501,3357
3407,29.8581,3448
3408,29.8661,3376
3409,29.8741,3346
3410,29.9011,3440
3411,29.9091,3373
3412,29.9171,3365
3413,29.9251,3423
3414,29.9331,3377
3415,29.9411,3368
3416,29.9491,3409
3417,29.9571,3381
3418,29.9651,3360
3419,29.9731,3407
3420,29.9769,3365
3421,29.9849,3492
3422,29.9929,3398
3423,30.0009,3359
3424,30.0089,3456
3425,30.0169,3383
3426,30.0249,3359
3427,30.0329,3438
3428,30.0409,3382
3429,30.0489,3371
3430,30.0797,3446
3431,30.0877,3402
3432,30.0957,3400
3433,30.1037,3468
3434,30.1117,3433
3435,30.1197,3430
3436,30.1277,3494
3437,30.1357,3461
3438,30.1437,3600
3439,30.1517,3489
3440,30.1519,3447
3441,30.1599,3556
3442,30.1679,3472
3443,30.1759,3436
3444,30.1839,3516
3445,30.1919,3439
3446,30.1999,3415
3447,30.2079,3485
3448,30.2159,3418
3449,30.2239,3395
3450,30.2516,3447
3451,30.2596,3400
3452,30.2676,3367
3453,30.2756,3415
3454,30.2836,3373
3455,30.2916,3349
3456,30.2996,3389
3457,30.3076,3356
3458,30.3156,3463
3459,30.3236,3372
3460,30.3272,3334
3461,30.3352,3529
3462,30.3432,3390
3463,30.3512,3325
3464,30.3592,3375
3465,30.3672,3324
3466,30.3752,3308
3467,30.3832,3369
3468,30.3912,3327
3469,30.3992,3313
3470,30.4259,3378
3471,30.4339,3333
3472,30.4419,3327
3473,30.4499,3374
3474,30.4579,3348
3475,30.4659,3451
3476,30.4739,3382
3477,30.4819,3358
3478,30.4899,3453
3479,30.4979,3391
3480,30.5018,3370
3481,30.5098,3455
3482,30.5178,3395
3483,30.5258,3380
3484,30.5338,3446
3485,30.5418,3404
3486,30.5498,3383
3487,30.5578,3444
3488,30.5658,3402
3489,30.5738,3381
3490,30.6019,3439
3491,30.6099,3388
3492,30.6179,3383
3493,30.6259,3414
3494,30.6339,3383
3495,30.6419,3478
3496,30.6499,3414
3497,30.6579,3396
3498,30.6659,3473
3499,30.6739,3424
3500,30.6764,3406
3501,30.6844,3488
3502,30.6924,3433
3503,30.7004,3428
3504,30.7084,3487
3505,30.7164,3455
3506,30.7244,3449
3507,30.7324,3508
3508,30.7404,3478
3509,30.7484,3484
3510,30.7761,3557
3511,30.7841,3544
3512,30.7921,3668
3513,30.8001,3613
3514,30.8081,3603
3515,30.8161,3729
3516,30.8241,3686
3517,30.8321,3678
3518,30.8401,3785
3519,30.8481,3747
3520,30.8769,3748
3521,30.8849,3847
3522,30.8929,3790
3523,30.9009,3767
3524,30.9089,3827
3525,30.9169,3772
3526,30.9249,3748
3527,30.9329,3799
3528,30.9409,3743
3529,30.9489,3797
3530,30.9526,3767
3531,30.9606,3694
3532,30.9686,3828
3533,30.9766,3684
3534,30.9846,3615
3535,30.9926,3698
3536,31.0006,3572
3537,31.0086,3507
3538,31.0166,3567
3539,31.0246,3455
3540,31.0510,3395
3541,31.0590,3453
3542,31.0670,3362
3543,31.0750,3319
3544,31.0830,3366
3545,31.0910,3287
3546,31.0990,3252
3547,31.1070,3300
3548,31.1150,3224
3549,31.1230,3344
3550,31.1263,3220
3551,31.1343,3172
3552,31.1423,3287
3553,31.1503,3198
3554,31.1583,3172
3555,31.1663,3281
3556,31.1743,3217
3557,31.1823,3206
3558,31.1903,3312
3559,31.1983,3247
3560,31.2513,3243
3561,31.2593,3339
3562,31.2673,3296
3563,31.2753,3294
3564,31.2833,3369
3565,31.2913,3327
3566,31.2993,3504
3567,31.3073,3384
3568,31.3153,3332
3569,31.3233,3470
3570,31.3042,3371
3571,31.3122,3339
3572,31.3202,3450
3573,31.3282,3350
3574,31.3362,3315
3575,31.3442,3420
3576,31.3522,3331
3577,31.3602,3312
3578,31.3682,3379
3579,31.3762,3320
3580,31.4019,3287
3581,31.4099,3360
3582,31.4179,3294
3583,31.4259,3267
3584,31.4339,3312
3585,31.4419,3266
3586,31.4499,3396
3587,31.4579,3296
3588,31.4659,3260
3589,31.4739,3360
3590,31.4768,3278
3591,31.4848,3230
3592,31.4928,3336
3593,31.5008,3249
3594,31.5088,3218
3595,31.5168,3283
3596,31.5248,3206
3597,31.5328,3175
3598,31.5408,3219
3599,31.5488,3165
3600,31.5775,3127
3601,31.5855,3185
3602,31.5935,3132
3603,31.6015,3263
3604,31.6095,3176
3605,31.6175,3141
3606,31.6255,3280
3607,31.6335,3204
3608,31.6415,3192
3609,31.6495,3287
3610,31.6510,3235
3611,31.6590,3220
3612,31.6670,3313
3613,31.6750,3257
3614,31.6830,3249
3615,31.6910,3323
3616,31.6990,3271
3617,31.7070,3271
3618,31.7150,3336
3619,31.7230,3303
3620,31.7511,3303
3621,31.7591,3356
3622,31.7671,3330
3623,31.7751,3443
3624,31.7831,3367
3625,31.7911,3354
3626,31.7991,3452
3627,31.8071,3395
3628,31.8151,3375
3629,31.8231,3461
3630,31.8258,3400
3631,31.8338,3366
3632,31.8418,3438
3633,31.8498,3390
3634,31.8578,3367
3635,31.8658,3422
3636,31.8738,3392
3637,31.8818,3371
3638,31.8898,3428
3639,31.8978,3391
3640,31.9270,3510
3641,31.9350,3431
3642,31.9430,3399
3643,31.9510,3496
3644,31.9590,3436
3645,31.9670,3404
3646,31.9750,3487
3647,31.9830,3440
3648,31.9910,3421
3649,31.9990,3488
3650,32.0018,3448
3651,32.0098,3429
3652,32.0178,3495
3653,32.0258,3461
3654,32.0338,3447
3655,32.0418,3492
3656,32.0498,3463
3657,32.0578,3524
3658,32.0658,3504
3659,32.0738,3470
3660,32.1011,3587
3661,32.1091,3505
3662,32.1171,3479
3663,32.1251,3574
3664,32.1331,3514
3665,32.1411,3494
3666,32.1491,3562
3667,32.1571,3517
3668,32.1651,3495
3669,32.1731,3566
3670,32.1775,3508
3671,32.1855,3492
3672,32.1935,3541
3673,32.2015,3498
3674,32.2095,3469
3675,32.2175,3518
3676,32.2255,3480
3677,32.2335,3575
3678,32.2415,3495
3679,32.2495,3463
3680,32.3019,3555
3681,32.3099,3481
3682,32.3179,3455
3683,32.3259,3526
3684,32.3339,3478
3685,32.3419,3457
3686,32.3499,3524
3687,32.3579,3483
3688,32.3659,3470
3689,32.3739,3526
3690,32.3519,3494
3691,32.3599,3485
3692,32.3679,3544
3693,32.3759,3517
3694,32.3839,3560
3695,32.3919,3582
3696,32.3999,3570
3697,32.4079,3679
3698,32.4159,3624
3699,32.4239,3605
3700,32.4527,3728
3701,32.4607,3659
3702,32.4687,3637
3703,32.4767,3724
3704,32.4847,3663
3705,32.4927,3639
3706,32.5007,3706
3707,32.5087,3634
3708,32.5167,3616
3709,32.5247,3670
3710,32.5288,3600
3711,32.5368,3564
3712,32.5448,3607
3713,32.5528,3549
3714,32.5608,3656
3715,32.5688,3544
3716,32.5768,3488
3717,32.5848,3584
3718,32.5928,3493
3719,32.6008,3447
3720,32.6269,3539
3721,32.6349,3443
3722,32.6429,3400
3723,32.6509,3466
3724,32.6589,3384
3725,32.6669,3352
3726,32.6749,3412
3727,32.6829,3352
3728,32.6909,3326
3729,32.6989,3394
3730,32.7019,3352
3731,32.7099,3505
3732,32.7179,3378
3733,32.7259,3333
3734,32.7339,3447
3735,32.7419,3344
3736,32.7499,3306
3737,32.7579,3398
3738,32.7659,3312
3739,32.7739,3282
3740,32.8022,3365
3741,32.8102,3307
3742,32.8182,3287
3743,32.8262,3370
3744,32.8342,3309
3745,32.8422,3301
3746,32.8502,3373
3747,32.8582,3332
3748,32.8662,3318
3749,32.8742,3375
3750,32.8761,3344
3751,32.8841,3490
3752,32.8921,3384
3753,32.9001,3349
3754,32.9081,3455
3755,32.9161,3372
3756,32.9241,3344
3757,32.9321,3443
3758,32.9401,3366
3759,32.9481,3340
3760,32.9762,3432
3761,32.9842,3351
3762,32.9922,3324
3763,33.0002,3386
3764,33.0082,3328
3765,33.0162,3311
3766,33.0242,3365
3767,33.0322,3326
3768,33.0402,3470
3769,33.0482,3355
3770,33.0516,3326
3771,33.0596,3475
3772,33.0676,3391
3773,33.0756,3367
3774,33.0836,3494
3775,33.0916,3431
3776,33.0996,3421
3777,33.1076,3532
3778,33.1156,3471
3779,33.1236,3451
3780,33.1511,3545
3781,33.1591,3487
3782,33.1671,3451
3783,33.1751,3522
3784,33.1831,3463
3785,33.1911,3443
3786,33.1991,3488
3787,33.2071,3423
3788,33.2151,3560
3789,33.2231,3437
3790,33.2269,3393
3791,33.2349,3512
3792,33.2429,3394
3793,33.2509,3344
3794,33.2589,3348
3795,33.2669,3318
3796,33.2749,3307
3797,33.2829,3382
3798,33.2909,3329
3799,33.2989,3300
3800,33.3261,3362
3801,33.3341,3308
3802,33.3421,3277
3803,33.3501,3333
3804,33.3581,3298
3805,33.3661,3436
3806,33.3741,3334
3807,33.3821,3291
3808,33.3901,3422
3809,33.3981,3338
3810,33.4021,3299
3811,33.4101,3427
3812,33.4181,3344
3813,33.4261,3324
3814,33.4341,3408
3815,33.4421,3345
3816,33.4501,3330
3817,33.4581,3400
3818,33.4661,3345
3819,33.4741,3326
3820,33.5010,3391
3821,33.5090,3341
3822,33.5170,3496
3823,33.5250,3375
3824,33.5330,3334
3825,33.5410,3465
3826,33.5490,3359
3827,33.5570,3329
3828,33.5650,3434
3829,33.5730,3350
3830,33.5761,3320
3831,33.5841,3416
3832,33.5921,3342
3833,33.6001,3310
3834,33.6081,3383
3835,33.6161,3329
3836,33.6241,3299
3837,33.6321,3377
3838,33.6401,3328
3839,33.6481,3314
3840,33.6773,3372
3841,33.6853,3319
3842,33.6933,3451
3843,33.7013,3343
3844,33.7093,3311
3845,33.7173,3430
3846,33.7253,3338
3847,33.7333,3321
3848,33.7413,3423
3849,33.7493,3366
3850,33.7774,3360
3851,33.7854,3467
3852,33.7934,3427
3853,33.8014,3418
3854,33.8094,3511
3855,33.8174,3478
3856,33.8254,3470
3857,33.8334,3538
3858,33.8414,3491
3859,33.8494,3662
3860,33.8523,3531
3861,33.8603,3482
3862,33.8683,3609
3863,33.8763,3495
3864,33.8843,3442
3865,33.8923,3542
3866,33.9003,3453
3867,33.9083,3416
3868,33.9163,3503
3869,33.9243,3417
3870,33.9526,3385
3871,33.9606,3557
3872,33.9686,3419
3873,33.9766,3366
3874,33.9846,3415
3875,33.9926,3352
3876,34.0006,3325
3877,34.0086,3377
3878,34.0166,3329
3879,34.0246,3469
3880,34.0261,3359
3881,34.0341,3316
3882,34.0421,3458
3883,34.0501,3352
3884,34.0581,3324
3885,34.0661,3421
3886,34.0741,3339
3887,34.0821,3310
3888,34.0901,3372
3889,34.0981,3282
3890,34.1262,3236
3891,34.1342,3290
3892,34.1422,3218
3893,34.1502,3183
3894,34.1582,3236
3895,34.1662,3186
3896,34.1742,3315
3897,34.1822,3216
3898,34.1902,3186
3899,34.1982,3303
3900,34.2261,3231
3901,34.2341,3208
3902,34.2421,3320
3903,34.2501,3256
3904,34.2581,3234
3905,34.2661,3322
3906,34.2741,3274
3907,34.2821,3264
3908,34.2901,3340
3909,34.2981,3300
3910,34.3019,3290
3911,34.3099,3363
3912,34.3179,3328
3913,34.3259,3303
3914,34.3339,3400
3915,34.3419,3364
3916,34.3499,3489
3917,34.3579,3412
3918,34.3659,3402
3919,34.3739,3503
3920,34.3769,3423
3921,34.3849,3405
3922,34.3929,3502
3923,34.4009,3436
3924,34.4089,3413
3925,34.4169,3482
3926,34.4249,3430
3927,34.4329,3436
3928,34.4409,3509
3929,34.4489,3473
3930,34.4769,3475
3931,34.4849,3548
3932,34.4929,3510
3933,34.5009,3643
3934,34.5089,3556
3935,34.5169,3525
3936,34.5249,3652
3937,34.5329,3551
3938,34.5409,3524
3939,34.5489,3611
3940,34.5530,3536
3941,34.5610,3491
3942,34.5690,3580
3943,34.5770,3496
3944,34.5850,3467
3945,34.5930,3536
3946,34.6010,3482
3947,34.6090,3460
3948,34.6170,3517
3949,34.6250,3475
3950,34.6519,3471
3951,34.6599,3521
3952,34.6679,3482
3953,34.6759,3602
3954,34.6839,3511
3955,34.6919,3480
3956,34.6999,3597
3957,34.7079,3513
3958,34.7159,3477
3959,34.7239,3582
3960,34.7269,3508
3961,34.7349,3482
3962,34.7429,3559
3963,34.7509,3499
3964,34.7589,3469
3965,34.7669,3531
3966,34.7749,3472
3967,34.7829,3447
3968,34.7909,3513
3969,34.7989,3457
3970,34.8520,3609
3971,34.8600,3488
3972,34.8680,3437
3973,34.8760,3548
3974,34.8840,3449
3975,34.8920,3409
3976,34.9000,3510
3977,34.9080,3418
3978,34.9160,3385
3979,34.9240,3463
3980,34.9021,3393
3981,34.9101,3361
3982,34.9181,3428
3983,34.9261,3362
3984,34.9341,3339
3985,34.9421,3392
3986,34.9501,3337
3987,34.9581,3482
3988,34.9661,3367
3989,34.9741,3321
3990,35.0010,3451
3991,35.0090,3353
3992,35.0170,3306
3993,35.0250,3410
3994,35.0330,3331
3995,35.0410,3303
3996,35.0490,3395
3997,35.0570,3328
3998,35.0650,3308
3999,35.0730,3380
4000,35.0760,3321
4001,35.0840,3304
4002,35.0920,3377
4003,35.1000,3327
4004,35.1080,3328
4005,35.1160,3403
4006,35.1240,3368
4007,35.1320,3527
4008,35.1400,3437
4009,35.1480,3425
4010,35.1764,3565
4011,35.1844,3496
4012,35.1924,3457
4013,35.2004,3551
4014,35.2084,3494
4015,35.2164,3471
4016,35.2244,3546
4017,35.2324,3485
4018,35.2404,3449
4019,35.2484,3512
4020,35.2519,3453
4021,35.2599,3415
4022,35.2679,3471
4023,35.2759,3409
4024,35.2839,3540
4025,35.2919,3415
4026,35.2999,3365
4027,35.3079,3481
4028,35.3159,3370
4029,35.3239,3323
4030,35.3513,3439
4031,35.3593,3343
4032,35.3673,3301
4033,35.3753,3376
4034,35.3833,3308
4035,35.3913,3282
4036,35.3993,3363
4037,35.4073,3305
4038,35.4153,3283
4039,35.4233,3364
4040,35.4261,3306
4041,35.4341,3263
4042,35.4421,3360
4043,35.4501,3336
4044,35.4581,3461
4045,35.4661,3375
4046,35.4741,3341
4047,35.4821,3465
4048,35.4901,3389
4049,35.4981,3374
4050,35.5270,3503
4051,35.5350,3423
4052,35.5430,3418
4053,35.5510,3506
4054,35.5590,3442
4055,35.5670,3432
4056,35.5750,3491
4057,35.5830,3436
4058,35.5910,3413
4059,35.5990,3455
4060,35.6019,3398
4061,35.6099,3539
4062,35.6179,3388
4063,35.6259,3325
4064,35.6339,3416
4065,35.6419,3291
4066,35.6499,3248
4067,35.6579,3323
4068,35.6659,3246
4069,35.6739,3208
4070,35.7023,3303
4071,35.7103,3232
4072,35.7183,3208
4073,35.7263,3275
4074,35.7343,3224
4075,35.7423,3207
4076,35.7503,3273
4077,35.7583,3235
4078,35.7663,3279
4079,35.7743,3306
4080,35.7778,3275
4081,35.7858,3586
4082,35.7938,3410
4083,35.8018,3356
4084,35.8098,3481
4085,35.8178,3425
4086,35.8258,3436
4087,35.8338,3563
4088,35.8418,3520
4089,35.8498,3518
4090,35.9018,3623
4091,35.9098,3572
4092,35.9178,3566
4093,35.9258,3644
4094,35.9338,3582
4095,35.9418,3567
4096,35.9498,3625
4097,35.9578,3569
4098,35.9658,3716
4099,35.9738,3579
4100,35.9519,3523
4101,35.9599,3647
4102,35.9679,3522
4103,35.9759,3472
4104,35.9839,3568
4105,35.9919,3464
4106,35.9999,3418
4107,36.0079,3485
4108,36.0159,3401
4109,36.0239,3359
4110,36.0514,3438
4111,36.0594,3361
4112,36.0674,3329
4113,36.0754,3386
4114,36.0834,3337
4115,36.0914,3504
4116,36.0994,3372
4117,36.1074,3328
4118,36.1154,3468
4119,36.1234,3357
4120,36.1510,3328
4121,36.1590,3461
4122,36.1670,3362
4123,36.1750,3335
4124,36.1830,3436
4125,36.1910,3358
4126,36.1990,3337
4127,36.2070,3429
4128,36.2150,3351
4129,36.2230,3347
4130,36.2268,3426
4131,36.2348,3358
4132,36.2428,3344
4133,36.2508,3397
4134,36.2588,3349
4135,36.2668,3488
4136,36.2748,3373
4137,36.2828,3333
4138,36.2908,3458
4139,36.2988,3354
4140,36.3018,3319
4141,36.3098,3554
4142,36.3178,3381
4143,36.3258,3314
4144,36.3338,3385
4145,36.3418,3310
4146,36.3498,3283
4147,36.3578,3361
4148,36.3658,3306
4149,36.3738,3282
4150,36.4035,3355
4151,36.4115,3305
4152,36.4195,3443
4153,36.4275,3341
4154,36.4355,3299
4155,36.4435,3443
4156,36.4515,3348
4157,36.4595,3316
4158,36.4675,3434
4159,36.4755,3369
4160,36.4768,3357
4161,36.4848,3487
4162,36.4928,3431
4163,36.5008,3427
4164,36.5088,3540
4165,36.5168,3487
4166,36.5248,3490
4167,36.5328,3503
4168,36.5408,3502
4169,36.5488,3480
4170,36.5762,3567
4171,36.5842,3519
4172,36.5922,3651
4173,36.6002,3533
4174,36.6082,3472
4175,36.6162,3588
4176,36.6242,3475
4177,36.6322,3420
4178,36.6402,3511
4179,36.6482,3412
4180,36.6775,3362
4181,36.6855,3452
4182,36.6935,3363
4183,36.7015,3313
4184,36.7095,3380
4185,36.7175,3310
4186,36.7255,3282
4187,36.7335,3344
4188,36.7415,3283
4189,36.7495,3433
4190,36.7511,3315
4191,36.7591,3270
4192,36.7671,3421
4193,36.7751,3311
4194,36.7831,3284
4195,36.7911,3297
4196,36.7991,3283
4197,36.8071,3290
4198,36.8151,3399
4199,36.8231,3327
4200,36.8512,3317
4201,36.8592,3416
4202,36.8672,3354
4203,36.8752,3319
4204,36.8832,3399
4205,36.8912,3345
4206,36.8992,3400
4207,36.9072,3391
4208,36.9152,3338
4209,36.9232,3477
4210,36.9262,3373
4211,36.9342,3332
4212,36.9422,3463
4213,36.9502,3361
4214,36.9582,3323
4215,36.9662,3427
4216,36.9742,3346
4217,36.9822,3316
4218,36.9902,3402
4219,36.9982,3330
4220,37.0260,3310
4221,37.0340,3390
4222,37.0420,3341
4223,37.0500,3316
4224,37.0580,3374
4225,37.0660,3328
4226,37.0740,3479
4227,37.0820,3359
4228,37.0900,3324
4229,37.0980,3451
4230,37.1016,3357
4231,37.1096,3322
4232,37.1176,3445
4233,37.1256,3361
4234,37.1336,3339
4235,37.1416,3438
4236,37.1496,3387
4237,37.1576,3392
4238,37.1656,3496
4239,37.1736,3463
4240,37.2262,3466
4241,37.2342,3559
4242,37.2422,3520
4243,37.2502,3702
4244,37.2582,3579
4245,37.2662,3534
4246,37.2742,3680
4247,37.2822,3559
4248,37.2902,3519
4249,37.2982,3627
4250,37.2775,3525
4251,37.2855,3474
4252,37.2935,3577
4253,37.3015,3480
4254,37.3095,3438
4255,37.3175,3532
4256,37.3255,3441
4257,37.3335,3396
4258,37.3415,3450
4259,37.3495,3384
4260,37.3769,3338
4261,37.3849,3387
4262,37.3929,3309
4263,37.4009,3433
4264,37.4089,3308
4265,37.4169,3244
4266,37.4249,3369
4267,37.4329,3276
4268,37.4409,3231
4269,37.4489,3343
4270,37.4762,3263
4271,37.4842,3247
4272,37.4922,3356
4273,37.5002,3280
4274,37.5082,3260
4275,37.5162,3329
4276,37.5242,3263
4277,37.5322,3241
4278,37.5402,3316
4279,37.5482,3265
4280,37.5511,3445
4281,37.5591,3331
4282,37.5671,3291
4283,37.5751,3447
4284,37.5831,3343
4285,37.5911,3327
4286,37.5991,3440
4287,37.6071,3367
4288,37.6151,3337
4289,37.6231,3445
4290,37.6270,3376
4291,37.6350,3347
4292,37.6430,3448
4293,37.6510,3377
4294,37.6590,3360
4295,37.6670,3432
4296,37.6750,3367
4297,37.6830,3329
4298,37.6910,3400
4299,37.6990,3362
4300,37.7261,3524
4301,37.7341,3408
4302,37.7421,3354
4303,37.7501,3478
4304,37.7581,3384
4305,37.7661,3353
4306,37.7741,3452
4307,37.7821,3376
4308,37.7901,3343
4309,37.7981,3440
4310,37.8011,3378
4311,37.8091,3372
4312,37.8171,3473
4313,37.8251,3421
4314,37.8331,3429
4315,37.8411,3522
4316,37.8491,3494
4317,37.8571,3546
4318,37.8651,3529
4319,37.8731,3532
4320,37.9029,3703
4321,37.9109,3601
4322,37.9189,3560
4323,37.9269,3661
4324,37.9349,3561
4325,37.9429,3509
4326,37.9509,3597
4327,37.9589,3501
4328,37.9669,3451
4329,37.9749,3509
4330,37.9881,3427
4331,37.9961,3376
4332,38.0041,3443
4333,38.0121,3365
4334,38.0201,3509
4335,38.0281,3376
4336,38.0361,3308
4337,38.0441,3443
4338,38.0521,3311
4339,38.0601,3264
4340,38.0777,3400
4341,38.0857,3284
4342,38.0937,3247
4343,38.1017,3351
4344,38.1097,3277
4345,38.1177,3251
4346,38.1257,3347
4347,38.1337,3290
4348,38.1417,3271
4349,38.1497,3348
4350,38.1507,3301
4351,38.1587,3292
4352,38.1667,3369
4353,38.1747,3328
4354,38.1827,3470
4355,38.1907,3368
4356,38.1987,3318
4357,38.2067,3458
4358,38.2147,3361
4359,38.2227,3320
4360,38.2508,3440
4361,38.2588,3349
4362,38.2668,3320
4363,38.2748,3395
4364,38.2828,3325
4365,38.2908,3304
4366,38.2988,3374
4367,38.3068,3316
4368,38.3148,3289
4369,38.3228,3358
4370,38.3261,3298
4371,38.3341,3435
4372,38.3421,3351
4373,38.3501,3295
4374,38.3581,3434
4375,38.3661,3328
4376,38.3741,3296
4377,38.3821,3413
4378,38.3901,3332
4379,38.3981,3292
4380,38.4272,3408
4381,38.4352,3315
4382,38.4432,3291
4383,38.4512,3370
4384,38.4592,3300
4385,38.4672,3283
4386,38.4752,3364
4387,38.4832,3312
4388,38.4912,3300
4389,38.4992,3377
4390,38.5019,3343
4391,38.5099,3541
4392,38.5179,3442
4393,38.5259,3423
4394,38.5339,3568
4395,38.5419,3497
4396,38.5499,3472
4397,38.5579,3589
4398,38.5659,3504
4399,38.5739,3475
4400,38.6268,3569
4401,38.6348,3480
4402,38.6428,3434
4403,38.6508,3492
4404,38.6588,3399
4405,38.6668,3355
4406,38.6748,3393
4407,38.6828,3299
4408,38.6908,3407
4409,38.6988,3262
4410,38.6765,3209
4411,38.6845,3369
4412,38.6925,3227
4413,38.7005,3165
4414,38.7085,3276
4415,38.7165,3175
4416,38.7245,3146
4417,38.7325,3239
4418,38.7405,3181
4419,38.7485,3167
4420,38.7761,3261
4421,38.7841,3215
4422,38.7921,3207
4423,38.8001,3286
4424,38.8081,3251
4425,38.8161,3257
4426,38.8241,3331
4427,38.8321,3311
4428,38.8401,3460
4429,38.8481,3378
4430,38.8510,3357
4431,38.8590,3490
4432,38.8670,3418
4433,38.8750,3400
4434,38.8830,3507
4435,38.8910,3439
4436,38.8990,3427
4437,38.9070,3515
4438,38.9150,3460
4439,38.9230,3436
4440,38.9540,3514
4441,38.9620,3451
4442,38.9700,3437
4443,38.9780,3494
4444,38.9860,3449
4445,38.9940,3588
4446,39.0020,3481
4447,39.0100,3438
4448,39.0180,3560
4449,39.0260,3464
4450,39.0271,3423
4451,39.0351,3535
4452,39.0431,3443
4453,39.0511,3424
4454,39.0591,3497
4455,39.0671,3429
4456,39.0751,3408
4457,39.0831,3488
4458,39.0911,3422
4459,39.0991,3397
4460,39.1257,3463
4461,39.1337,3417
4462,39.1417,3545
4463,39.1497,3446
4464,39.1577,3406
4465,39.1657,3535
4466,39.1737,3444
4467,39.1817,3425
4468,39.1897,3541
4469,39.1977,3481
4470,39.2541,3464
4471,39.2621,3573
4472,39.2701,3512
4473,39.2781,3497
4474,39.2861,3584
4475,39.2941,3519
4476,39.3021,3495
4477,39.3101,3561
4478,39.3181,3501
4479,39.3261,3463
4480,39.3258,3529
4481,39.3338,3447
4482,39.3418,3563
4483,39.3498,3438
4484,39.3578,3377
4485,39.3658,3484
4486,39.3738,3372
4487,39.3818,3321
4488,39.3898,3400
4489,39.3978,3320
4490,39.4010,3287
4491,39.4090,3376
4492,39.4170,3314
4493,39.4250,3290
4494,39.4330,3363
4495,39.4410,3313
4496,39.4490,3287
4497,39.4570,3351
4498,39.4650,3311
4499,39.4730,3471
4500,39.4764,3360
4501,39.4844,3329
4502,39.4924,3447
4503,39.5004,3368
4504,39.5084,3346
4505,39.5164,3449
4506,39.5244,3392
4507,39.5324,3371
4508,39.5404,3476
4509,39.5484,3420
4510,39.5785,3412
4511,39.5865,3582
4512,39.5945,3483
4513,39.6025,3447
4514,39.6105,3496
4515,39.6185,3447
4516,39.6265,3432
4517,39.6345,3487
4518,39.6425,3438
4519,39.6505,3558
4520,39.6519,3453
4521,39.6599,3422
4522,39.6679,3523
4523,39.6759,3440
4524,39.6839,3412
4525,39.6919,3493
4526,39.6999,3430
4527,39.7079,3403
4528,39.7159,3500
4529,39.7239,3449
4530,39.7514,3442
4531,39.7594,3512
4532,39.7674,3466
4533,39.7754,3457
4534,39.7834,3509
4535,39.7914,3481
4536,39.7994,3627
4537,39.8074,3538
4538,39.8154,3502
4539,39.8234,3634
4540,39.8257,3557
4541,39.8337,3535
4542,39.8417,3793
4543,39.8497,3624
4544,39.8577,3567
4545,39.8657,3662
4546,39.8737,3599
4547,39.8817,3592
4548,39.8897,3698
4549,39.8977,3655
4550,39.9287,3652
4551,39.9367,3756
4552,39.9447,3712
4553,39.9527,3716
4554,39.9607,3801
4555,39.9687,3768
4556,39.9767,3938
4557,39.9847,3826
4558,39.9927,3797
4559,40.0007,3937
4560,40.0011,3849
4561,40.0091,3824
4562,40.0171,3963
4563,40.0251,3869
4564,40.0331,3839
4565,40.0411,3942
4566,40.0491,3854
4567,40.0571,3837
4568,40.0651,3917
4569,40.0731,3840
4570,40.1014,3806
4571,40.1094,3896
4572,40.1174,3817
4573,40.1254,4010
4574,40.1334,3860
4575,40.1414,3800
4576,40.1494,3974
4577,40.1574,3837
4578,40.1654,3791
4579,40.1734,3933
4580,40.1790,3816
4581,40.1870,3763
4582,40.1950,3868
4583,40.2030,3736
4584,40.2110,3633
4585,40.2190,3663
4586,40.2270,3485
4587,40.2350,3360
4588,40.2430,3341
4589,40.2510,3168
4590,40.2770,3136
4591,40.2850,3017
4592,40.2930,2868
4593,40.3010,2967
4594,40.3090,2793
4595,40.3170,2728
4596,40.3250,2871
4597,40.3330,2782
4598,40.3410,2752
4599,40.3490,2897
4600,40.3518,2799
4601,40.3598,2768
4602,40.3678,2875
4603,40.3758,2765
4604,40.3838,2737
4605,40.3918,2831
4606,40.3998,2772
4607,40.4078,2745
4608,40.4158,2817
4609,40.4238,2738
4610,40.4528,2939
4611,40.4608,2762
4612,40.4688,2695
4613,40.4768,2861
4614,40.4848,2755
4615,40.4928,2753
4616,40.5008,2900
4617,40.5088,2828
4618,40.5168,2812
4619,40.5248,2952
4620,40.5270,2887
4621,40.5350,2896
4622,40.5430,3041
4623,40.5510,3001
4624,40.5590,3026
4625,40.5670,3145
4626,40.5750,3119
4627,40.5830,3238
4628,40.5910,3205
4629,40.5990,3156
4630,40.6261,3353
4631,40.6341,3235
4632,40.6421,3191
4633,40.6501,3352
4634,40.6581,3256
4635,40.6661,3218
4636,40.6741,3352
4637,40.6821,3253
4638,40.6901,3214
4639,40.6981,3301
4640,40.7011,3224
4641,40.7091,3188
4642,40.7171,3272
4643,40.7251,3180
4644,40.7331,3136
4645,40.7411,3170
4646,40.7491,3092
4647,40.7571,3225
4648,40.7651,3058
4649,40.7731,2984
4650,40.8010,3116
4651,40.8090,2980
4652,40.8170,2906
4653,40.8250,2995
4654,40.8330,2883
4655,40.8410,2838
4656,40.8490,2912
4657,40.8570,2831
4658,40.8650,2804
4659,40.8730,2889
4660,40.8761,2851
4661,40.8841,2857
4662,40.8921,2960
4663,40.9001,2944
4664,40.9081,3111
4665,40.9161,3037
4666,40.9241,3035
4667,40.9321,3172
4668,40.9401,3116
4669,40.9481,3118
4670,40.9766,3251
4671,40.9846,3201
4672,40.9926,3198
4673,41.0006,3308
4674,41.0086,3273
4675,41.0166,3277
4676,41.0246,3373
4677,41.0326,3348
4678,41.0406,3358
4679,41.0486,3443
4680,41.0514,3434
4681,41.0594,3453
4682,41.0674,3531
4683,41.0754,3532
4684,41.0834,3654
4685,41.0914,3593
4686,41.0994,3585
4687,41.1074,3617
4688,41.1154,3615
4689,41.1234,3628
4690,41.1514,3734
4691,41.1594,3676
4692,41.1674,3651
4693,41.1754,3719
4694,41.1834,3673
4695,41.1914,3653
4696,41.1994,3710
4697,41.2074,3672
4698,41.2154,3641
4699,41.2234,3690
4700,41.2523,3645
4701,41.2603,3808
4702,41.2683,3719
4703,41.2763,3646
4704,41.2843,3733
4705,41.2923,3663
4706,41.3003,3647
4707,41.3083,3727
4708,41.3163,3672
4709,41.3243,3657
4710,41.3268,3766
4711,41.3348,3684
4712,41.3428,3657
4713,41.3508,3801
4714,41.3588,3686
4715,41.3668,3642
4716,41.3748,3676
4717,41.3828,3615
4718,41.3908,3582
4719,41.3988,3635
4720,41.4015,3580
4721,41.4095,3695
4722,41.4175,3583
4723,41.4255,3538
4724,41.4335,3620
4725,41.4415,3533
4726,41.4495,3504
4727,41.4575,3573
4728,41.4655,3495
4729,41.4735,3459
4730,41.5011,3524
4731,41.5091,3459
4732,41.5171,3431
4733,41.5251,3486
4734,41.5331,3435
4735,41.5411,3415
4736,41.5491,3463
4737,41.5571,3417
4738,41.5651,3527
4739,41.5731,3439
4740,41.5761,3418
4741,41.5841,3520
4742,41.5921,3440
4743,41.6001,3406
4744,41.6081,3494
4745,41.6161,3427
4746,41.6241,3407
4747,41.6321,3474
4748,41.6401,3428
4749,41.6481,3405
4750,41.6764,3467
4751,41.6844,3419
4752,41.6924,3404
4753,41.7004,3449
4754,41.7084,3413
4755,41.7164,3414
4756,41.7244,3441
4757,41.7324,3410
4758,41.7404,3529
4759,41.7484,3446
4760,41.7516,3418
4761,41.7596,3513
4762,41.7676,3446
4763,41.7756,3432
4764,41.7836,3491
4765,41.7916,3456
4766,41.7996,3430
4767,41.8076,3494
4768,41.8156,3432
4769,41.8236,3401
4770,41.8511,3439
4771,41.8591,3379
4772,41.8671,3346
4773,41.8751,3340
4774,41.8831,3330
4775,41.8911,3427
4776,41.8991,3355
4777,41.9071,3332
4778,41.9151,3407
4779,41.9231,3336
4780,41.9522,3308
4781,41.9602,3384
4782,41.9682,3331
4783,41.9762,3312
4784,41.9842,3378
4785,41.9922,3351
4786,42.0002,3364
4787,42.0082,3440
4788,42.0162,3439
4789,42.0242,3462
4790,42.0271,3544
4791,42.0351,3543
4792,42.0431,3700
4793,42.0511,3619
4794,42.0591,3589
4795,42.0671,3672
4796,42.0751,3576
4797,42.0831,3518
4798,42.0911,3571
4799,42.0991,3477
4800,42.1011,3432
4801,42.1091,3473
4802,42.1171,3406
4803,42.1251,3366
4804,42.1331,3402
4805,42.1411,3344
4806,42.1491,3318
4807,42.1571,3352
4808,42.1651,3318
4809,42.1731,3300
4810,42.2020,3342
4811,42.2100,3320
4812,42.2180,3401
4813,42.2260,3343
4814,42.2340,3333
4815,42.2420,3423
4816,42.2500,3392
4817,42.2580,3404
4818,42.2660,3504
4819,42.2740,3496
4820,42.3019,3511
4821,42.3099,3600
4822,42.3179,3569
4823,42.3259,3570
4824,42.3339,3608
4825,42.3419,3571
4826,42.3499,3542
4827,42.3579,3554
4828,42.3659,3483
4829,42.3739,3533
4830,42.3762,3427
4831,42.3842,3369
4832,42.3922,3423
4833,42.4002,3355
4834,42.4082,3315
4835,42.4162,3361
4836,42.4242,3315
4837,42.4322,3292
4838,42.4402,3343
4839,42.4482,3315
4840,42.4761,3314
4841,42.4841,3370
4842,42.4921,3342
4843,42.5001,3337
4844,42.5081,3379
4845,42.5161,3371
4846,42.5241,3336
4847,42.5321,3449
4848,42.5401,3460
4849,42.5481,3580
4850,42.5528,3548
4851,42.5608,3543
4852,42.5688,3634
4853,42.5768,3588
4854,42.5848,3576
4855,42.5928,3648
4856,42.6008,3601
4857,42.6088,3585
4858,42.6168,3625
4859,42.6248,3560
4860,42.6514,3505
4861,42.6594,3511
4862,42.6674,3439
4863,42.6754,3412
4864,42.6834,3429
4865,42.6914,3400
4866,42.6994,3471
4867,42.7074,3402
4868,42.7154,3370
4869,42.7234,3438
4870,42.7260,3384
4871,42.7340,3376
4872,42.7420,3439
4873,42.7500,3411
4874,42.7580,3400
4875,42.7660,3461
4876,42.7740,3439
4877,42.7820,3458
4878,42.7900,3535
4879,42.7980,3525
4880,42.8258,3528
4881,42.8338,3574
4882,42.8418,3557
4883,42.8498,3651
4884,42.8578,3575
4885,42.8658,3546
4886,42.8738,3624
4887,42.8818,3547
4888,42.8898,3508
4889,42.8978,3559
4890,42.9023,3472
4891,42.9103,3420
4892,42.9183,3438
4893,42.9263,3359
4894,42.9343,3334
4895,42.9423,3358
4896,42.9503,3328
4897,42.9583,3312
4898,42.9663,3367
4899,42.9743,3340
4900,43.0011,3339
4901,43.0091,3376
4902,43.0171,3366
4903,43.0251,3434
4904,43.0331,3396
4905,43.0411,3373
4906,43.0491,3435
4907,43.0571,3393
4908,43.0651,3383
4909,43.0731,3450
4910,43.0762,3423
4911,43.0842,3443
4912,43.0922,3515
4913,43.1002,3503
4914,43.1082,3510
4915,43.1162,3562
4916,43.1242,3528
4917,43.1322,3511
4918,43.1402,3548
4919,43.1482,3499
4920,43.1773,3601
4921,43.1853,3471
4922,43.1933,3409
4923,43.2013,3450
4924,43.2093,3388
4925,43.2173,3356
4926,43.2253,3405
4927,43.2333,3364
4928,43.2413,3346
4929,43.2493,3400
4930,43.2514,3361
4931,43.2594,3356
4932,43.2674,3407
4933,43.2754,3379
4934,43.2834,3384
4935,43.2914,3427
4936,43.2994,3412
4937,43.3074,3425
4938,43.3154,3463
4939,43.3234,3450
4940,43.3510,3523
4941,43.3590,3474
4942,43.3670,3453
4943,43.3750,3526
4944,43.3830,3477
4945,43.3910,3463
4946,43.3990,3546
4947,43.4070,3511
4948,43.4150,3520
4949,43.4230,3573
4950,43.4261,3543
4951,43.4341,3523
4952,43.4421,3561
4953,43.4501,3520
4954,43.4581,3486
4955,43.4661,3465
4956,43.4741,3429
4957,43.4821,3495
4958,43.4901,3420
4959,43.4981,3392
4960,43.5261,3453
4961,43.5341,3383
4962,43.5421,3362
4963,43.5501,3411
4964,43.5581,3375
4965,43.5661,3353
4966,43.5741,3403
4967,43.5821,3369
4968,43.5901,3351
4969,43.5981,3368
4970,43.6011,3359
4971,43.6091,3363
4972,43.6171,3418
4973,43.6251,3385
4974,43.6331,3334
4975,43.6411,3419
4976,43.6491,3403
4977,43.6571,3482
4978,43.6651,3431
4979,43.6731,3416
4980,43.7011,3482
4981,43.7091,3434
4982,43.7171,3418
4983,43.7251,3482
4984,43.7331,3443
4985,43.7411,3434
4986,43.7491,3480
4987,43.7571,3448
4988,43.7651,3433
4989,43.7731,3471
4990,43.7776,3447
4991,43.7856,3443
4992,43.7936,3481
4993,43.8016,3457
4994,43.8096,3529
4995,43.8176,3469
4996,43.8256,3446
4997,43.8336,3521
4998,43.8416,3480
4999,43.8496,3456
5000,43.8761,3512
5001,43.8841,3465
5002,43.8921,3458
5003,43.9001,3511
5004,43.9081,3477
5005,43.9161,3468
5006,43.9241,3513
5007,43.9321,3489
5008,43.9401,3483
5009,43.9481,3518
5010,43.9514,3502
5011,43.9594,3558
5012,43.9674,3552
5013,43.9754,3526
5014,43.9834,3603
5015,43.9914,3551
5016,43.9994,3537
5017,44.0074,3610
5018,44.0154,3544
5019,44.0234,3530
5020,44.0514,3605
5021,44.0594,3561
5022,44.0674,3553
5023,44.0754,3606
5024,44.0834,3577
5025,44.0914,3574
5026,44.0994,3635
5027,44.1074,3616
5028,44.1154,3602
5029,44.1234,3655
5030,44.1272,3629
5031,44.1352,3752
5032,44.1432,3671
5033,44.1512,3656
5034,44.1592,3747
5035,44.1672,3680
5036,44.1752,3652
5037,44.1832,3731
5038,44.1912,3658
5039,44.1992,3622
5040,44.2270,3680
5041,44.2350,3597
5042,44.2430,3542
5043,44.2510,3568
5044,44.2590,3470
5045,44.2670,3419
5046,44.2750,3439
5047,44.2830,3375
5048,44.2910,3508
5049,44.2990,3390
5050,44.3019,3336
5051,44.3099,3446
5052,44.3179,3343
5053,44.3259,3308
5054,44.3339,3385
5055,44.3419,3312
5056,44.3499,3273
5057,44.3579,3354
5058,44.3659,3287
5059,44.3739,3269
5060,44.4038,3340
5061,44.4118,3276
5062,44.4198,3256
5063,44.4278,3303
5064,44.4358,3267
5065,44.4438,3251
5066,44.4518,3296
5067,44.4598,3256
5068,44.4678,3379
5069,44.4758,3285
5070,44.4761,3257
5071,44.4841,3363
5072,44.4921,3289
5073,44.5001,3260
5074,44.5081,3340
5075,44.5161,3286
5076,44.5241,3279
5077,44.5321,3341
5078,44.5401,3297
5079,44.5481,3272
5080,44.5760,3334
5081,44.5840,3287
5082,44.5920,3272
5083,44.6000,3316
5084,44.6080,3288
5085,44.6160,3400
5086,44.6240,3324
5087,44.6320,3297
5088,44.6400,3411
5089,44.6480,3347
5090,44.6521,3324
5091,44.6601,3424
5092,44.6681,3366
5093,44.6761,3352
5094,44.6841,3416
5095,44.6921,3365
5096,44.7001,3335
5097,44.7081,3396
5098,44.7161,3342
5099,44.7241,3323
5100,44.7504,3367
5101,44.7584,3320
5102,44.7664,3277
5103,44.7744,3344
5104,44.7824,3308
5105,44.7904,3414
5106,44.7984,3344
5107,44.8064,3323
5108,44.8144,3416
5109,44.8224,3364
5110,44.8255,3354
5111,44.8335,3437
5112,44.8415,3384
5113,44.8495,3379
5114,44.8575,3448
5115,44.8655,3409
5116,44.8735,3409
5117,44.8815,3465
5118,44.8895,3434
5119,44.8975,3424
5120,44.9259,3473
5121,44.9339,3458
5122,44.9419,3569
5123,44.9499,3497
5124,44.9579,3484
5125,44.9659,3590
5126,44.9739,3533
5127,44.9819,3516
5128,44.9899,3618
5129,44.9979,3572
5130,45.0275,3568
5131,45.0355,3658
5132,45.0435,3615
5133,45.0515,3612
5134,45.0595,3681
5135,45.0675,3648
5136,45.0755,3633
5137,45.0835,3700
5138,45.0915,3663
5139,45.0995,3720
5140,45.1016,3712
5141,45.1096,3656
5142,45.1176,3943
5143,45.1256,3728
5144,45.1336,3646
5145,45.1416,3720
5146,45.1496,3616
5147,45.1576,3576
5148,45.1656,3660
5149,45.1736,3567
5150,45.2015,3536
5151,45.2095,3615
5152,45.2175,3554
5153,45.2255,3518
5154,45.2335,3571
5155,45.2415,3504
5156,45.2495,3469
5157,45.2575,3504
5158,45.2655,3435
5159,45.2735,3557
5160,45.2773,3432
5161,45.2853,3356
5162,45.2933,3473
5163,45.3013,3355
5164,45.3093,3303
5165,45.3173,3404
5166,45.3253,3315
5167,45.3333,3289
5168,45.3413,3312
5169,45.3493,3300
5170,45.4012,3301
5171,45.4092,3487
5172,45.4172,3375
5173,45.4252,3328
5174,45.4332,3335
5175,45.4412,3325
5176,45.4492,3513
5177,45.4572,3400
5178,45.4652,3354
5179,45.4732,3503
5180,45.4512,3397
5181,45.4592,3362
5182,45.4672,3502
5183,45.4752,3403
5184,45.4832,3378
5185,45.4912,3497
5186,45.4992,3412
5187,45.5072,3378
5188,45.5152,3464
5189,45.5232,3386
5190,45.5527,3347
5191,45.5607,3407
5192,45.5687,3344
5193,45.5767,3292
5194,45.5847,3341
5195,45.5927,3280
5196,45.6007,3418
5197,45.6087,3287
5198,45.6167,3233
5199,45.6247,3354
5200,45.6515,3240
5201,45.6595,3203
5202,45.6675,3328
5203,45.6755,3231
5204,45.6835,3214
5205,45.6915,3306
5206,45.6995,3255
5207,45.7075,3246
5208,45.7155,3271
5209,45.7235,3277
5210,45.7262,3279
5211,45.7342,3403
5212,45.7422,3351
5213,45.7502,3628
5214,45.7582,3493
5215,45.7662,3412
5216,45.7742,3555
5217,45.7822,3480
5218,45.7902,3476
5219,45.7982,3630
5220,45.8011,3562
5221,45.8091,3555
5222,45.8171,3720
5223,45.8251,3650
5224,45.8331,3648
5225,45.8411,3758
5226,45.8491,3688
5227,45.8571,3665
5228,45.8651,3728
5229,45.8731,3642
5230,45.9012,3588
5231,45.9092,3636
5232,45.9172,3528
5233,45.9252,3652
5234,45.9332,3466
5235,45.9412,3360
5236,45.9492,3465
5237,45.9572,3311
5238,45.9652,3236
5239,45.9732,3315
5240,46.0011,3176
5241,46.0091,3106
5242,46.0171,3174
5243,46.0251,3025
5244,46.0331,2943
5245,46.0411,2975
5246,46.0491,2863
5247,46.0571,2811
5248,46.0651,2868
5249,46.0731,2790
5250,46.0761,2960
5251,46.0841,2839
5252,46.0921,2808
5253,46.1001,2969
5254,46.1081,2873
5255,46.1161,2858
5256,46.1241,2992
5257,46.1321,2929
5258,46.1401,2922
5259,46.1481,3038
5260,46.1519,2984
5261,46.1599,2964
5262,46.1679,3057
5263,46.1759,2987
5264,46.1839,2966
5265,46.1919,3032
5266,46.1999,2990
5267,46.2079,3039
5268,46.2159,3026
5269,46.2239,2983
5270,46.2519,3135
5271,46.2599,3060
5272,46.2679,3045
5273,46.2759,3177
5274,46.2839,3139
5275,46.2919,3152
5276,46.2999,3267
5277,46.3079,3239
5278,46.3159,3252
5279,46.3239,3362
5280,46.3269,3334
5281,46.3349,3347
5282,46.3429,3431
5283,46.3509,3411
5284,46.3589,3414
5285,46.3669,3476
5286,46.3749,3455
5287,46.3829,3598
5288,46.3909,3516
5289,46.3989,3483
5290,46.4270,3613
5291,46.4350,3544
5292,46.4430,3518
5293,46.4510,3612
5294,46.4590,3558
5295,46.4670,3535
5296,46.4750,3618
5297,46.4830,3571
5298,46.4910,3554
5299,46.4990,3632
5300,46.5022,3567
5301,46.5102,3548
5302,46.5182,3607
5303,46.5262,3565
5304,46.5342,3692
5305,46.5422,3581
5306,46.5502,3549
5307,46.5582,3665
5308,46.5662,3576
5309,46.5742,3546
5310,46.6029,3656
5311,46.6109,3573
5312,46.6189,3548
5313,46.6269,3629
5314,46.6349,3569
5315,46.6429,3544
5316,46.6509,3613
5317,46.6589,3551
5318,46.6669,3534
5319,46.6749,3586
5320,46.6770,3524
5321,46.6850,3501
5322,46.6930,3547
5323,46.7010,3497
5324,46.7090,3616
5325,46.7170,3510
5326,46.7250,3471
5327,46.7330,3570
5328,46.7410,3480
5329,46.7490,3441
5330,46.7781,3531
5331,46.7861,3447
5332,46.7941,3415
5333,46.8021,3484
5334,46.8101,3424
5335,46.8181,3401
5336,46.8261,3460
5337,46.8341,3409
5338,46.8421,3393
5339,46.8501,3435
5340,46.8510,3400
5341,46.8590,3539
5342,46.8670,3438
5343,46.8750,3405
5344,46.8830,3508
5345,46.8910,3422
5346,46.8990,3395
5347,46.9070,3483
5348,46.9150,3420
5349,46.9230,3385
5350,46.9511,3467
5351,46.9591,3399
5352,46.9671,3373
5353,46.9751,3440
5354,46.9831,3383
5355,46.9911,3370
5356,46.9991,3428
5357,47.0071,3382
5358,47.0151,3377
5359,47.0231,3425
5360,47.0259,3394
5361,47.0339,3530
5362,47.0419,3441
5363,47.0499,3415
5364,47.0579,3525
5365,47.0659,3458
5366,47.0739,3440
5367,47.0819,3532
5368,47.0899,3459
5369,47.0979,3432
5370,47.1261,3507
5371,47.1341,3442
5372,47.1421,3419
5373,47.1501,3471
5374,47.1581,3418
5375,47.1661,3396
5376,47.1741,3440
5377,47.1821,3398
5378,47.1901,3528
5379,47.1981,3445
5380,47.2011,3415
5381,47.2091,3554
5382,47.2171,3484
5383,47.2251,3463
5384,47.2331,3582
5385,47.2411,3528
5386,47.2491,3528
5387,47.2571,3616
5388,47.2651,3558
5389,47.2731,3533
5390,47.3021,3617
5391,47.3101,3556
5392,47.3181,3539
5393,47.3261,3604
5394,47.3341,3554
5395,47.3421,3607
5396,47.3501,3575
5397,47.3581,3519
5398,47.3661,3648
5399,47.3741,3541
5400,47.3785,3494
5401,47.3865,3616
5402,47.3945,3524
5403,47.4025,3488
5404,47.4105,3580
5405,47.4185,3506
5406,47.4265,3482
5407,47.4345,3566
5408,47.4425,3511
5409,47.4505,3487
5410,47.4762,3572
5411,47.4842,3528
5412,47.4922,3508
5413,47.5002,3580
5414,47.5082,3536
5415,47.5162,3696
5416,47.5242,3575
5417,47.5322,3531
5418,47.5402,3670
5419,47.5482,3557
5420,47.5512,3514
5421,47.5592,3640
5422,47.5672,3531
5423,47.5752,3489
5424,47.5832,3578
5425,47.5912,3493
5426,47.5992,3439
5427,47.6072,3509
5428,47.6152,3432
5429,47.6232,3387
5430,47.6523,3448
5431,47.6603,3363
5432,47.6683,3516
5433,47.6763,3374
5434,47.6843,3314
5435,47.6923,3450
5436,47.7003,3328
5437,47.7083,3278
5438,47.7163,3394
5439,47.7243,3295
5440,47.7271,3247
5441,47.7351,3357
5442,47.7431,3266
5443,47.7511,3231
5444,47.7591,3315
5445,47.7671,3253
5446,47.7751,3221
5447,47.7831,3312
5448,47.7911,3260
5449,47.7991,3265
5450,47.8261,3361
5451,47.8341,3338
5452,47.8421,3524
5453,47.8501,3424
5454,47.8581,3400
5455,47.8661,3570
5456,47.8741,3478
5457,47.8821,3442
5458,47.8901,3557
5459,47.8981,3465
5460,47.9262,3428
5461,47.9342,3521
5462,47.9422,3415
5463,47.9502,3377
5464,47.9582,3444
5465,47.9662,3355
5466,47.9742,3310
5467,47.9822,3294
5468,47.9902,3266
5469,47.9982,3432
5470,48.0011,3287
5471,48.0091,3213
5472,48.0171,3361
5473,48.0251,3215
5474,48.0331,3150
5475,48.0411,3266
5476,48.0491,3155
5477,48.0571,3121
5478,48.0651,3213
5479,48.0731,3131
5480,48.1017,3108
5481,48.1097,3215
5482,48.1177,3145
5483,48.1257,3134
5484,48.1337,3222
5485,48.1417,3171
5486,48.1497,3163
5487,48.1577,3240
5488,48.1657,3201
5489,48.1737,3367
5490,48.1892,3252
5491,48.1972,3225
5492,48.2052,3376
5493,48.2132,3259
5494,48.2212,3224
5495,48.2292,3335
5496,48.2372,3254
5497,48.2452,3224
5498,48.2532,3317
5499,48.2612,3241
5500,48.2786,3217
5501,48.2866,3299
5502,48.2946,3237
5503,48.3026,3204
5504,48.3106,3267
5505,48.3186,3219
5506,48.3266,3371
5507,48.3346,3258
5508,48.3426,3220
5509,48.3506,3349
5510,48.3513,3255
5511,48.3593,3223
5512,48.3673,3352
5513,48.3753,3253
5514,48.3833,3237
5515,48.3913,3324
5516,48.3993,3263
5517,48.4073,3253
5518,48.4153,3352
5519,48.4233,3312
5520,48.4518,3312
5521,48.4598,3405
5522,48.4678,3370
5523,48.4758,3391
5524,48.4838,3460
5525,48.4918,3431
5526,48.4998,3599
5527,48.5078,3510
5528,48.5158,3487
5529,48.5238,3618
5530,48.5266,3534
5531,48.5346,3502
5532,48.5426,3612
5533,48.5506,3528
5534,48.5586,3489
5535,48.5666,3563
5536,48.5746,3490
5537,48.5826,3460
5538,48.5906,3520
5539,48.5986,3456
5540,48.6275,3415
5541,48.6355,3471
5542,48.6435,3405
5543,48.6515,3537
5544,48.6595,3414
5545,48.6675,3366
5546,48.6755,3479
5547,48.6835,3379
5548,48.6915,3347
5549,48.6995,3442
5550,48.7040,3356
5551,48.7120,3327
5552,48.7200,3424
5553,48.7280,3356
5554,48.7360,3332
5555,48.7440,3399
5556,48.7520,3347
5557,48.7600,3334
5558,48.7680,3412
5559,48.7760,3363
5560,48.8028,3402
5561,48.8108,3400
5562,48.8188,3367
5563,48.8268,3498
5564,48.8348,3405
5565,48.8428,3378
5566,48.8508,3497
5567,48.8588,3409
5568,48.8668,3380
5569,48.8748,3477
5570,48.8772,3406
5571,48.8852,3376
5572,48.8932,3468
5573,48.9012,3396
5574,48.9092,3370
5575,48.9172,3434
5576,48.9252,3375
5577,48.9332,3354
5578,48.9412,3418
5579,48.9492,3368
5580,48.9782,3520
5581,48.9862,3401
5582,48.9942,3367
5583,49.0022,3480
5584,49.0102,3385
5585,49.0182,3365
5586,49.0262,3467
5587,49.0342,3397
5588,49.0422,3375
5589,49.0502,3480
5590,49.0542,3417
5591,49.0622,3409
5592,49.0702,3495
5593,49.0782,3455
5594,49.0862,3451
5595,49.0942,3519
5596,49.1022,3486
5597,49.1102,3657
5598,49.1182,3538
5599,49.1262,3499
5600,49.1522,3641
5601,49.1602,3536
5602,49.1682,3483
5603,49.1762,3586
5604,49.1842,3496
5605,49.1922,3458
5606,49.2002,3542
5607,49.2082,3456
5608,49.2162,3416
5609,49.2242,3482
5610,49.2281,3412
5611,49.2361,3383
5612,49.2441,3443
5613,49.2521,3376
5614,49.2601,3352
5615,49.2681,3401
5616,49.2761,3346
5617,49.2841,3471
5618,49.2921,3365
5619,49.3001,3321
5620,49.3277,3448
5621,49.3357,3360
5622,49.3437,3318
5623,49.3517,3410
5624,49.3597,3335
5625,49.3677,3317
5626,49.3757,3408
5627,49.3837,3338
5628,49.3917,3334
5629,49.3997,3392
5630,49.4013,3343
5631,49.4093,3321
5632,49.4173,3393
5633,49.4253,3348
5634,49.4333,3488
5635,49.4413,3382
5636,49.4493,3337
5637,49.4573,3465
5638,49.4653,3374
5639,49.4733,3347
5640,49.5028,3464
5641,49.5108,3375
5642,49.5188,3347
5643,49.5268,3430
5644,49.5348,3366
5645,49.5428,3344
5646,49.5508,3414
5647,49.5588,3358
5648,49.5668,3341
5649,49.5748,3400
5650,49.5765,3355
5651,49.5845,3326
5652,49.5925,3392
5653,49.6005,3348
5654,49.6085,3470
5655,49.6165,3380
5656,49.6245,3337
5657,49.6325,3456
5658,49.6405,3383
5659,49.6485,3364
5660,49.6778,3472
5661,49.6858,3398
5662,49.6938,3394
5663,49.7018,3485
5664,49.7098,3444
5665,49.7178,3440
5666,49.7258,3519
5667,49.7338,3479
5668,49.7418,3484
5669,49.7498,3539
5670,49.7534,3504
5671,49.7614,3655
5672,49.7694,3543
5673,49.7774,3488
5674,49.7854,3599
5675,49.7934,3507
5676,49.8014,3467
5677,49.8094,3570
5678,49.8174,3477
5679,49.8254,3435
5680,49.8514,3528
5681,49.8594,3447
5682,49.8674,3403
5683,49.8754,3479
5684,49.8834,3403
5685,49.8914,3380
5686,49.8994,3429
5687,49.9074,3374
5688,49.9154,3385
5689,49.9234,3391
5690,49.9279,3349
5691,49.9359,3488
5692,49.9439,3372
5693,49.9519,3333
5694,49.9599,3434
5695,49.9679,3347
5696,49.9759,3324
5697,49.9839,3414
5698,49.9919,3346
5699,49.9999,3319
5700,50.0262,3508
5701,50.0342,3375
5702,50.0422,3332
5703,50.0502,3386
5704,50.0582,3332
5705,50.0662,3321
5706,50.0742,3376
5707,50.0822,3341
5708,50.0902,3473
5709,50.0982,3367
5710,50.1018,3336
5711,50.1098,3458
5712,50.1178,3377
5713,50.1258,3344
5714,50.1338,3433
5715,50.1418,3362
5716,50.1498,3347
5717,50.1578,3429
5718,50.1658,3366
5719,50.1738,3343
5720,50.2024,3502
5721,50.2104,3393
5722,50.2184,3342
5723,50.2264,3387
5724,50.2344,3343
5725,50.2424,3506
5726,50.2504,3381
5727,50.2584,3349
5728,50.2664,3471
5729,50.2744,3379
5730,50.2766,3364
5731,50.2846,3483
5732,50.2926,3416
5733,50.3006,3404
5734,50.3086,3515
5735,50.3166,3457
5736,50.3246,3454
5737,50.3326,3531
5738,50.3406,3489
5739,50.3486,3474
5740,50.3773,3544
5741,50.3853,3491
5742,50.3933,3467
5743,50.4013,3519
5744,50.4093,3472
5745,50.4173,3606
5746,50.4253,3501
5747,50.4333,3443
5748,50.4413,3556
5749,50.4493,3456
5750,50.4516,3410
5751,50.4596,3508
5752,50.4676,3413
5753,50.4756,3376
5754,50.4836,3439
5755,50.4916,3372
5756,50.4996,3348
5757,50.5076,3408
5758,50.5156,3348
5759,50.5236,3328
5760,50.5523,3388
5761,50.5603,3330
5762,50.5683,3465
5763,50.5763,3364
5764,50.5843,3318
5765,50.5923,3448
5766,50.6003,3353
5767,50.6083,3327
5768,50.6163,3434
5769,50.6243,3358
5770,50.6523,3334
5771,50.6603,3427
5772,50.6683,3364
5773,50.6763,3338
5774,50.6843,3407
5775,50.6923,3356
5776,50.7003,3339
5777,50.7083,3400
5778,50.7163,3352
5779,50.7243,3318
5780,50.7278,3390
5781,50.7358,3354
5782,50.7438,3491
5783,50.7518,3390
5784,50.7598,3353
5785,50.7678,3457
5786,50.7758,3379
5787,50.7838,3353
5788,50.7918,3449
5789,50.7998,3378
5790,50.8265,3355
5791,50.8345,3434
5792,50.8425,3367
5793,50.8505,3354
5794,50.8585,3413
5795,50.8665,3366
5796,50.8745,3354
5797,50.8825,3406
5798,50.8905,3362
5799,50.8985,3498
5800,50.9025,3418
5801,50.9105,3394
5802,50.9185,3528
5803,50.9265,3452
5804,50.9345,3440
5805,50.9425,3543
5806,50.9505,3482
5807,50.9585,3473
5808,50.9665,3555
5809,50.9745,3494
5810,51.0015,3481
5811,51.0095,3556
5812,51.0175,3491
5813,51.0255,3463
5814,51.0335,3520
5815,51.0415,3468
5816,51.0495,3451
5817,51.0575,3487
5818,51.0655,3441
5819,51.0735,3550
5820,51.0777,3441
5821,51.0857,3399
5822,51.0937,3505
5823,51.1017,3407
5824,51.1097,3367
5825,51.1177,3444
5826,51.1257,3359
5827,51.1337,3345
5828,51.1417,3413
5829,51.1497,3350
5830,51.1773,3323
5831,51.1853,3469
5832,51.1933,3356
5833,51.2013,3319
5834,51.2093,3358
5835,51.2173,3311
5836,51.2253,3452
5837,51.2333,3352
5838,51.2413,3315
5839,51.2493,3429
5840,51.2769,3344
5841,51.2849,3325
5842,51.2929,3432
5843,51.3009,3361
5844,51.3089,3327
5845,51.3169,3414
5846,51.3249,3355
5847,51.3329,3340
5848,51.3409,3411
5849,51.3489,3360
5850,51.3533,3340
5851,51.3613,3410
5852,51.3693,3364
5853,51.3773,3514
5854,51.3853,3396
5855,51.3933,3360
5856,51.4013,3473
5857,51.4093,3394
5858,51.4173,3354
5859,51.4253,3461
5860,51.4265,3382
5861,51.4345,3361
5862,51.4425,3447
5863,51.4505,3375
5864,51.4585,3351
5865,51.4665,3415
5866,51.4745,3368
5867,51.4825,3352
5868,51.4905,3419
5869,51.4985,3376
5870,51.5264,3366
5871,51.5344,3439
5872,51.5424,3408
5873,51.5504,3549
5874,51.5584,3466
5875,51.5664,3443
5876,51.5744,3568
5877,51.5824,3488
5878,51.5904,3471
5879,51.5984,3576
5880,51.6019,3508
5881,51.6099,3463
5882,51.6179,3555
5883,51.6259,3484
5884,51.6339,3452
5885,51.6419,3507
5886,51.6499,3446
5887,51.6579,3423
5888,51.6659,3467
5889,51.6739,3417
5890,51.7022,3548
5891,51.7102,3442
5892,51.7182,3391
5893,51.7262,3494
5894,51.7342,3397
5895,51.7422,3355
5896,51.7502,3446
5897,51.7582,3365
5898,51.7662,3332
5899,51.7742,3431
5900,51.7789,3351
5901,51.7869,3333
5902,51.7949,3410
5903,51.8029,3347
5904,51.8109,3320
5905,51.8189,3390
5906,51.8269,3344
5907,51.8349,3300
5908,51.8429,3347
5909,51.8509,3344
5910,51.8759,3496
5911,51.8839,3399
5912,51.8919,3362
5913,51.8999,3470
5914,51.9079,3396
5915,51.9159,3363
5916,51.9239,3380
5917,51.9319,3368
5918,51.9399,3365
5919,51.9479,3456
5920,51.9512,3400
5921,51.9592,3379
5922,51.9672,3443
5923,51.9752,3395
5924,51.9832,3371
5925,51.9912,3428
5926,51.9992,3382
5927,52.0072,3517
5928,52.0152,3409
5929,52.0232,3376
5930,52.0509,3496
5931,52.0589,3402
5932,52.0669,3365
5933,52.0749,3456
5934,52.0829,3384
5935,52.0909,3359
5936,52.0989,3445
5937,52.1069,3383
5938,52.1149,3368
5939,52.1229,3445
5940,52.1276,3406
5941,52.1356,3400
5942,52.1436,3478
5943,52.1516,3445
5944,52.1596,3601
5945,52.1676,3499
5946,52.1756,3473
5947,52.1836,3604
5948,52.1916,3506
5949,52.1996,3473
5950,52.2270,3594
5951,52.2350,3500
5952,52.2430,3458
5953,52.2510,3463
5954,52.2590,3438
5955,52.2670,3419
5956,52.2750,3490
5957,52.2830,3421
5958,52.2910,3397
5959,52.2990,3452
5960,52.3020,3392
5961,52.3100,3359
5962,52.3180,3403
5963,52.3260,3352
5964,52.3340,3471
5965,52.3420,3368
5966,52.3500,3327
5967,52.3580,3428
5968,52.3660,3341
5969,52.3740,3300
5970,52.4275,3393
5971,52.4355,3310
5972,52.4435,3285
5973,52.4515,3352
5974,52.4595,3297
5975,52.4675,3275
5976,52.4755,3330
5977,52.4835,3288
5978,52.4915,3266
5979,52.4995,3331
5980,52.4763,3286
5981,52.4843,3441
5982,52.4923,3327
5983,52.5003,3302
5984,52.5083,3421
5985,52.5163,3340
5986,52.5243,3314
5987,52.5323,3405
5988,52.5403,3346
5989,52.5483,3327
5990,52.5764,3407
5991,52.5844,3355
5992,52.5924,3336
5993,52.6004,3408
5994,52.6084,3364
5995,52.6164,3347
5996,52.6244,3412
5997,52.6324,3375
5998,52.6404,3357
5999,52.6484,3408
6000,52.6511,3368
6001,52.6591,3500
6002,52.6671,3400
6003,52.6751,3367
6004,52.6831,3466
6005,52.6911,3394
6006,52.6991,3385
6007,52.7071,3470
6008,52.7151,3431
6009,52.7231,3424
6010,52.7512,3503
6011,52.7592,3460
6012,52.7672,3458
6013,52.7752,3526
6014,52.7832,3488
6015,52.7912,3479
6016,52.7992,3521
6017,52.8072,3489
6018,52.8152,3607
6019,52.8232,3510
6020,52.8265,3473
6021,52.8345,3582
6022,52.8425,3483
6023,52.8505,3450
6024,52.8585,3532
6025,52.8665,3447
6026,52.8745,3413
6027,52.8825,3479
6028,52.8905,3419
6029,52.8985,3383
6030,52.9276,3444
6031,52.9356,3389
6032,52.9436,3366
6033,52.9516,3415
6034,52.9596,3370
6035,52.9676,3310
6036,52.9756,3385
6037,52.9836,3359
6038,52.9916,3466
6039,52.9996,3390
6040,53.0290,3359
6041,53.0370,3464
6042,53.0450,3392
6043,53.0530,3370
6044,53.0610,3454
6045,53.0690,3392
6046,53.0770,3378
6047,53.0850,3449
6048,53.0930,3397
6049,53.1010,3390
6050,53.1010,3450
6051,53.1090,3408
6052,53.1170,3392
6053,53.1250,3444
6054,53.1330,3411
6055,53.1410,3520
6056,53.1490,3440
6057,53.1570,3410
6058,53.1650,3512
6059,53.1730,3441
6060,53.1763,3413
6061,53.1843,3499
6062,53.1923,3446
6063,53.2003,3420
6064,53.2083,3498
6065,53.2163,3437
6066,53.2243,3427
6067,53.2323,3484
6068,53.2403,3436
6069,53.2483,3422
6070,53.2764,3478
6071,53.2844,3448
6072,53.2924,3569
6073,53.3004,3479
6074,53.3084,3456
6075,53.3164,3569
6076,53.3244,3504
6077,53.3324,3492
6078,53.3404,3592
6079,53.3484,3534
6080,53.3541,3511
6081,53.3621,3608
6082,53.3701,3545
6083,53.3781,3528
6084,53.3861,3587
6085,53.3941,3544
6086,53.4021,3513
6087,53.4101,3518
6088,53.4181,3500
6089,53.4261,3487
6090,53.4521,3544
6091,53.4601,3491
6092,53.4681,3596
6093,53.4761,3491
6094,53.4841,3457
6095,53.4921,3547
6096,53.5001,3464
6097,53.5081,3419
6098,53.5161,3504
6099,53.5241,3424
6100,53.5513,3383
6101,53.5593,3552
6102,53.5673,3422
6103,53.5753,3359
6104,53.5833,3416
6105,53.5913,3367
6106,53.5993,3342
6107,53.6073,3406
6108,53.6153,3360
6109,53.6233,3513
6110,53.6275,3396
6111,53.6355,3365
6112,53.6435,3491
6113,53.6515,3402
6114,53.6595,3375
6115,53.6675,3470
6116,53.6755,3400
6117,53.6835,3378
6118,53.6915,3466
6119,53.6995,3399
6120,53.7298,3384
6121,53.7378,3454
6122,53.7458,3397
6123,53.7538,3381
6124,53.7618,3430
6125,53.7698,3387
6126,53.7778,3367
6127,53.7858,3420
6128,53.7938,3376
6129,53.8018,3494
6130,53.8021,3405
6131,53.8101,3359
6132,53.8181,3586
6133,53.8261,3415
6134,53.8341,3351
6135,53.8421,3415
6136,53.8501,3343
6137,53.8581,3324
6138,53.8661,3400
6139,53.8741,3347
6140,53.9011,3331
6141,53.9091,3414
6142,53.9171,3374
6143,53.9251,3379
6144,53.9331,3436
6145,53.9411,3407
6146,53.9491,3551
6147,53.9571,3471
6148,53.9651,3439
6149,53.9731,3557
6150,53.9774,3476
6151,53.9854,3447
6152,53.9934,3545
6153,54.0014,3466
6154,54.0094,3444
6155,54.0174,3511
6156,54.0254,3442
6157,54.0334,3413
6158,54.0414,3481
6159,54.0494,3417
6160,54.0764,3386
6161,54.0844,3437
6162,54.0924,3385
6163,54.1004,3328
6164,54.1084,3396
6165,54.1164,3355
6166,54.1244,3478
6167,54.1324,3373
6168,54.1404,3334
6169,54.1484,3434
6170,54.1518,3354
6171,54.1598,3325
6172,54.1678,3410
6173,54.1758,3343
6174,54.1838,3312
6175,54.1918,3380
6176,54.1998,3341
6177,54.2078,3314
6178,54.2158,3390
6179,54.2238,3339
6180,54.2521,3324
6181,54.2601,3383
6182,54.2681,3350
6183,54.2761,3467
6184,54.2841,3384
6185,54.2921,3349
6186,54.3001,3455
6187,54.3081,3380
6188,54.3161,3349
6189,54.3241,3440
6190,54.3279,3372
6191,54.3359,3343
6192,54.3439,3428
6193,54.3519,3365
6194,54.3599,3346
6195,54.3679,3416
6196,54.3759,3366
6197,54.3839,3341
6198,54.3919,3409
6199,54.3999,3373
6200,54.4271,3420
6201,54.4351,3408
6202,54.4431,3365
6203,54.4511,3471
6204,54.4591,3391
6205,54.4671,3367
6206,54.4751,3476
6207,54.4831,3416
6208,54.4911,3399
6209,54.4991,3500
6210,54.5017,3452
6211,54.5097,3440
6212,54.5177,3525
6213,54.5257,3483
6214,54.5337,3473
6215,54.5417,3544
6216,54.5497,3496
6217,54.5577,3480
6218,54.5657,3532
6219,54.5737,3484
6220,54.6025,3612
6221,54.6105,3502
6222,54.6185,3463
6223,54.6265,3557
6224,54.6345,3472
6225,54.6425,3425
6226,54.6505,3520
6227,54.6585,3431
6228,54.6665,3398
6229,54.6745,3469
6230,54.6772,3390
6231,54.6852,3372
6232,54.6932,3417
6233,54.7012,3363
6234,54.7092,3332
6235,54.7172,3388
6236,54.7252,3335
6237,54.7332,3490
6238,54.7412,3359
6239,54.7492,3327
6240,54.7777,3453
6241,54.7857,3368
6242,54.7937,3331
6243,54.8017,3419
6244,54.8097,3354
6245,54.8177,3344
6246,54.8257,3421
6247,54.8337,3362
6248,54.8417,3346
6249,54.8497,3424
6250,54.8537,3371
6251,54.8617,3360
6252,54.8697,3423
6253,54.8777,3372
6254,54.8857,3361
6255,54.8937,3406
6256,54.9017,3376
6257,54.9097,3504
6258,54.9177,3405
6259,54.9257,3378
6260,54.9527,3488
6261,54.9607,3410
6262,54.9687,3382
6263,54.9767,3464
6264,54.9847,3400
6265,54.9927,3375
6266,55.0007,3444
6267,55.0087,3397
6268,55.0167,3372
6269,55.0247,3438
6270,55.0254,3391
6271,55.0334,3379
6272,55.0414,3446
6273,55.0494,3414
6274,55.0574,3546
6275,55.0654,3470
6276,55.0734,3450
6277,55.0814,3571
6278,55.0894,3504
6279,55.0974,3497
6280,55.1274,3596
6281,55.1354,3523
6282,55.1434,3494
6283,55.1514,3581
6284,55.1594,3509
6285,55.1674,3488
6286,55.1754,3555
6287,55.1834,3487
6288,55.1914,3458
6289,55.1994,3515
6290,55.2024,3460
6291,55.2104,3421
6292,55.2184,3548
6293,55.2264,3441
6294,55.2344,3527
6295,55.2424,3421
6296,55.2504,3379
6297,55.2584,3480
6298,55.2664,3385
6299,55.2744,3357
6300,55.3011,3441
6301,55.3091,3370
6302,55.3171,3335
6303,55.3251,3399
6304,55.3331,3336
6305,55.3411,3324
6306,55.3491,3386
6307,55.3571,3337
6308,55.3651,3320
6309,55.3731,3371
6310,55.3779,3331
6311,55.3859,3473
6312,55.3939,3371
6313,55.4019,3333
6314,55.4099,3439
6315,55.4179,3368
6316,55.4259,3335
6317,55.4339,3429
6318,55.4419,3360
6319,55.4499,3332
6320,55.4792,3420
6321,55.4872,3360
6322,55.4952,3331
6323,55.5032,3403
6324,55.5112,3343
6325,55.5192,3329
6326,55.5272,3389
6327,55.5352,3350
6328,55.5432,3406
6329,55.5512,3382
6330,55.5522,3344
6331,55.5602,3459
6332,55.5682,3375
6333,55.5762,3347
6334,55.5842,3435
6335,55.5922,3376
6336,55.6002,3345
6337,55.6082,3437
6338,55.6162,3373
6339,55.6242,3366
6340,55.6518,3448
6341,55.6598,3414
6342,55.6678,3402
6343,55.6758,3486
6344,55.6838,3459
6345,55.6918,3466
6346,55.6998,3528
6347,55.7078,3489
6348,55.7158,3631
6349,55.7238,3531
6350,55.7276,3492
6351,55.7356,3611
6352,55.7436,3512
6353,55.7516,3477
6354,55.7596,3561
6355,55.7676,3476
6356,55.7756,3449
6357,55.7836,3509
6358,55.7916,3446
6359,55.7996,3415
6360,55.8262,3558
6361,55.8342,3430
6362,55.8422,3374
6363,55.8502,3410
6364,55.8582,3362
6365,55.8662,3512
6366,55.8742,3387
6367,55.8822,3340
6368,55.8902,3453
6369,55.8982,3356
6370,55.9017,3327
6371,55.9097,3436
6372,55.9177,3360
6373,55.9257,3326
6374,55.9337,3407
6375,55.9417,3352
6376,55.9497,3328
6377,55.9577,3403
6378,55.9657,3351
6379,55.9737,3339
6380,56.0021,3408
6381,56.0101,3359
6382,56.0181,3335
6383,56.0261,3392
6384,56.0341,3376
6385,56.0421,3489
6386,56.0501,3397
6387,56.0581,3372
6388,56.0661,3467
6389,56.0741,3396
6390,56.1023,3370
6391,56.1103,3462
6392,56.1183,3394
6393,56.1263,3372
6394,56.1343,3441
6395,56.1423,3387
6396,56.1503,3371
6397,56.1583,3432
6398,56.1663,3376
6399,56.1743,3371
6400,56.1767,3422
6401,56.1847,3374
6402,56.1927,3520
6403,56.2007,3407
6404,56.2087,3366
6405,56.2167,3472
6406,56.2247,3399
6407,56.2327,3374
6408,56.2407,3480
6409,56.2487,3424
6410,56.2510,3404
6411,56.2590,3510
6412,56.2670,3468
6413,56.2750,3454
6414,56.2830,3536
6415,56.2910,3495
6416,56.2990,3484
6417,56.3070,3542
6418,56.3150,3495
6419,56.3230,3479
6420,56.3513,3537
6421,56.3593,3477
6422,56.3673,3593
6423,56.3753,3483
6424,56.3833,3435
6425,56.3913,3528
6426,56.3993,3439
6427,56.4073,3393
6428,56.4153,3481
6429,56.4233,3404
6430,56.4533,3367
6431,56.4613,3434
6432,56.4693,3368
6433,56.4773,3340
6434,56.4853,3399
6435,56.4933,3341
